<Actel_Data_File>
    <format name="NVM File" version="01.00.00"/>
    <header>
        <die>
            M2S025
        </die>
        <family>
            SmartFusion2
        </family>
        <module>
            
        </module>
        <package>
            256 VF
        </package>
        <version>
            11.8.2.4
        </version>
    </header>
    <nvm>
        <region name="PGM_store" address="0x000000" retrieveAddressFromFile="false" size="8400" format="HEX" type="Data Storage" wordSize="8" numberWords="8400" memFile="C:/Users/Mike Klopfer/Documents/GitHub/Microsemi_SmartFusion2_FutureCreativeBoard_BaseDesign/FCBBaseDesign/SoftConsole/FCBBaseDesign/Release/FCBBaseDesign.hex" memType="INTELHEX" memFileTimeStamp="1517102192" clientType="public" program="true">
            00000120910100007f030000810300008303000085030000870300000000
            0000000000000000000000000000890300008b030000000000008d030000
            8f0300009103000093030000b50d0000d10d0000990300009b0300009d03
            00009f030000a1030000a3030000a5030000a7030000a9030000ab030000
            0d190000af030000b1030000b3030000b5030000c5060000b9030000bb03
            0000bd030000bf030000c1030000c3030000c5030000910e0000390f0000
            cb030000cd030000cf030000d1030000d3030000d50300001d1900007519
            0000db030000dd030000df030000e1030000e3030000e5030000e7030000
            e9030000eb030000ed030000ef030000f1030000f3030000f5030000f703
            0000f9030000fb030000fd030000ff030000010400000304000005040000
            07040000090400000b0400000d0400000f04000011040000130400001504
            000017040000190400001b0400001d0400001f0400002104000023040000
            2504000027040000290400002b0400002d0400002f040000310400003304
            000000000000000000004ff0000bdff8be020068dff8b612096801f00301
            00f01c00142801d14bf0020b002901d04bf0010bbbf1000f05d0a748a749
            dff8722200f09ff8a64880470bf0020abaf1000f0cd0dff86e02dff86e12
            02680b680fb44ff000024ff0ff0302600b609d4800220123022808d1dff8
            3e120a60dff842120a60dff836120b60012808d1dff82e120a60dff82a12
            0a60dff81e120b609148002809d191489149924a00f032f891489249924a
            00f02df892489249934a00f028f892489349dff8e62100f05af8bbf1000f
            12d090489049dff8da2100f051f80bf0020abaf1000f07d00fbc02600b60
            00bfaff30080aff30080dff820020ff2030e00474ff000004ff00001dff8
            14f2fee72de9f841884225d0b2eb010200d5fee740ea010313f0030302d0
            00f01df819e04ff0000390461211f7d09a421cbff0c8f0c103f10103f8d1
            08f00f08b8f1000f08d004780c7000f1010001f10101b8f10108f6d1bde8
            f88108b54ff0000303780b7000f1010001f10101013af7d108bd884237d0
            00f00306002e14d04ff00405a5eb06044ff0080707fb06f8914669fa08f9
            002c07d080f8009069fa07f900f10100013cf5e74ff000060f46091a8846
            0911914614461546b14206d018bfa0e8340206f10106b142f8d108f00f08
            b8f1000f07d002704fea322200f10100b8f10108f4e77047fee7fee7fee7
            fee7fee7fee7fee7fee7fee7fee7fee7fee7fee7fee7fee7fee7fee7fee7
            fee7fee7fee7fee7fee7fee7fee7fee7fee7fee7fee7fee7fee7fee7fee7
            fee7fee7fee7fee7fee7fee7fee7fee7fee7fee7fee7fee7fee7fee7fee7
            fee7fee7fee7fee7fee7fee7fee7fee7fee7fee7fee7fee7fee7fee7fee7
            fee7fee7fee7fee7fee7fee7fee7fee7fee7fee7fee7fee7fee7fee7fee7
            fee7fee7fee7fee7fee7fee7fee7fee7fee7fee7fee7fee7fee770470000
            0000a2a2a2a2008003400880034010800340308003403480034038800340
            18080240000000f00020000001200d160000000000000000000000000000
            0000000090010000b0040000b0040000701c0000701c0000000000206004
            002060040020c0060020c006002000f00020991900003d17000000000000
            10b5054c237833b9044b13b10448aff300800123237010bd600400200000
            0000441c00000c4b43b10c4810b50c49aff300800c48036823b910bd0a48
            036833b97047094b002bf7d0bde810401847064b002bf5d0184700bf0000
            0000441c000064040020000000200000000038b50c4605460021204600f0
            3ffe690641f08241204600f08dfe05460021204600f05efe25f07f4038bd
            00bf70b504460d46164610460021640600f027fe44f0804405f47f010c44
            05f47f410c44e9b22144304600f06efe3046bde87040002100f03ebe38b5
            04460d460a460a200649fff7dcff21012a46bde8384041f47c610a20fff7
            d3bf00bfd00ffc00f8b505460f46082019461e461446fff7b1ffeab2d307
            4ff00f034fea820149b254bf47eac40444ea47048b408c4020ea03013246
            21430820bde8f840fff7b0bf13460022fff7dcbf01607047006870470eb5
            03fa01f303ea020301686fea020201ea020141ea030101600ebd006800ea
            020020fa01f0704701807047008870470eb503fa01f303ea020301886fea
            020201ea020141ea030101800ebd008800ea020020fa01f0704701707047
            007870470eb503fa01f303ea020301786fea020201ea020141ea03010170
            0ebd007800ea020020fa01f070470b4b10b50b4c198823683bb10a4a89b2
            106898470023094a23601370084b1a46196841f0010119601368db07fcd4
            10bd9c0400208404002094040020a104002000600140924bf0b55c689a68
            e4b21440a10785b01fd4e10701d405b0f0bd8d4d2b78022b00f09480052b
            2ad0012b57d0874a894c936823f00103936023683bb1864a002110689847
            0023854a2360137000232b70e1e77f4d1a692b78d0b2052b00f25081dfe8
            13f0cb00d700d700df00a00089007b4b1a68002a40f0c980e207cbd5794c
            2368002b00f0fc802368002b6bd06f4926680b68744823f0040307680b60
            4b6803f001030393039a92b1002e00f0678100227d1e01e096420ad015f8
            013f01320b614b6803f001030393039b002bf2d1236817449a1a07602260
            9ce7634e33889bb2002b37d0594934880b68dff88ce123f00403def80070
            0b604b68a4b203f001030193019a92b1002c00f03c810022781e01e09442
            0ad010f8013f01320b614b6803f001030193019b002bf2d133889bb29342
            00f2ed8000224a4b32801b68002b00f0ee8002232b7064e7454c2368002b
            40f0a880414b1b78002b3ff45baffff72cff57e70321384a936823f00103
            936029704fe716043ff57aaf364b354e1a683368507033b1104602219847
            0023324a3360137000232b70e3073ff546af05b0f0bd17042dd4314a2b49
            13880e689bb2334413f8013cf12b00f0bd802d49138809889bb28b4206d2
            17881388bfb201339bb2f055138013889bb29942dcd11c4f13883a6899b2
            002ad4d03046904700231a4a3b601370cde71204cdd5f12800f0ab80164b
            1a68002ac6d01b689847ffe615047ff5fdae114b1a68002af5d1f7e61304
            b9d5144b1b789842ead1002304210f4a297013801188074e138836680133
            89b29bb213807054a6e700600140a00400208404002094040020a1040020
            7c0400208804002090040020820400209c0400209e040020800400208c04
            0020424b1b68002b4fd04148984720602368002b7ff4f9ae03213e4a9368
            23f0010393602970f0e63b4927680b68384823f00403d0f800e00b604b68
            03f001030293029a92b1002f5cd000220ef1ff3601e097420ad016f8013f
            01320b614b6803f001030293029b002bf2d1236893427ff63aaf21680eeb
            02038a1a036022608ae6254e3368002b3ff446af244a002110683ce73388
            17449a1a92b2cef80070328079e603232b7076e61d4b1b78002b3ff4abae
            fff743fea7e61a4f11881388d7f800e08ab29bb2b054013bbef1000f3ff4
            22af3a68f05c90471de700260422124b2a701e8019881a8889b2013292b2
            1a800a4a1b8812689bb25054d6540de73246a6e63a46b1e72246d1e600bf
            9804002090040020006001408404002094040020a10400207c0400209c04
            00202a4a036890422de9f04f1c68d3f81880d3f804c0d3f828e01f6b5e6b
            dd692cd04ff0030b4ff0080a214a22491346d1f8489080f804b002601f48
            49f48069c1f84890c0f880a1886c20f480608864116821f00041116024f0
            01041c60c3f81880c3f804c01a6842f001021a60c3f828e01f635e63dd61
            bde8f08f02234ff004090c490e4a03718b6c02600b4843f400738b64c0f8
            8091886c134620f400708864116821f000411160d5e700bf480500200010
            01400080034000e100e0001000400268f0b49368dd053fd40369c768bb42
            11d285682b44ee1901e09e420bd013f8011b51619468591be4050161f5d5
            8f4201d9f0bc70479368db0511d4c3698569ab4225d246693344354401e0
            9d4207d013f8011b516191689c1bc461cc05f5d5436a002be5d0c1698369
            9942e1d3906810f48070ddd1202301e0013bd9d050619168c905f9d5f0bc
            70470169c768cee7436a002bebd1cce710b590f8803082b0022b0cd0012b
            18d003689a68520604d41a6900929a685206fad502b010bd0446236803e0
            1969626f00911ab99a685106f8d5f2e700989047f2e7026893685c06ebd4
            036bc16a14699942019404d9826a0199d154036b02689168013349060363
            f0d502b010bd00bf70b5036882b01a6a044692071d460ed590f88020022a
            36d0012a9a6803d190e01a6901929a685206fad50222da602a6ad60709d5
            94f88020022a28d02046fff75bff23680122da602a6ad00648d42a6a5107
            5cd42a6a12070bd5da6a94f8801042f008020229da625cd001297fd00822
            da602b6a9b060dd402b070bd1969626f0191002a59d19a685606f7d5cde7
            a26f5a61d7e72046fff77bff236a256b002b63d000221021236862626261
            a261e261d9609a6a0a439a620026da6a204642f00c022661da62fff717ff
            e36f266313b12946a06a984720222368da6002b070bd2046fff755ff236a
            2bb1a06a216b98472046fff701ff01221021236862629a6a22f010029a62
            d9602a6a5107a2d5da6a204642f00402da62fff78efe04222368da6097e7
            1a68a16f22f47f0222f47f4242f480721a60596199e7019890472368a1e7
            50063ff571af226be16a18699142019004d9a36a01999954226b23689968
            013249062263f0d55fe72368a4e7002320462361fff7c0fe236878e76846
            20f007018d4601b50348fff73affbde801408546704748050020684620f0
            07018d4601b50348fff72cffbde8014085467047c4040020f0b5264cb2f5
            803f27684fea870404eb07054feac5164fea850506f1844605f1402e0ef5
            803e06f52016c6f8c431cef80400cef80810def80c604fea16464fea0646
            cef80c601ed80021def80c0092b2134b0243cef80c20196101250020e319
            9a0002f1402202f58032d168db0103f1844303f5201341f4e001d160c3f8
            c051c3f8cc01f0bd064ba2f5803201f5803100f580301a61d9609860dee7
            a8040020ac040020684620f007018d4631b50124224d23492a6802eb8203
            9b0002f5287003f1402341f8204003f58033d9682244042a21f4e001d960
            08bf0023194c18bf2a60226908bf2b607ab11749a0680b68042b0cbf0023
            01330b60237de168fff77fffbde83140854670472b6803eb83039b0003f1
            402303f58033db6813f4e003efd10120084962682b6020700b60002ae7d0
            9047bde8314085467047a404002000002842ac040020a8040020684620f0
            07018d46264b31b51b6813f4706f1cd0244c21688b005a18d20102f18442
            02f52012d2f808223ab102201f4a5568107015b1a84721688b000b44db01
            03f1844303f52013d3f80c320bbb154b1b6813f4704f05d00420144b5a68
            187002b19047bde831400123114a1149c2f8c8318546c2f8803ac2f84834
            c1f8803ac2f8c836c1f8843ac2f84839c1f8883a70470320054b5a681870
            002ad7d09047d5e700bf00400140a4040020ac0400200000284204002842
            20b1072b02d8b2f5005f00d37047f0b50f4615461e46044683b0d1b207f1
            0800fff71efb6a1102f4ff6242ea060107f10c00fff715fb276007f11000
            fff712fb82070cd520680430fff70cfb23688df8070003f11000fff705fb
            8307f2d40023237103b0f0bd00bff8b508b101b112b900252846f8bd0446
            0068174610300e46fff7f0fa2379820743ea00032371efd50025013e01e0
            af42ebd0206801350430fff7e0fa06f8010f20681030fff7dafa23790343
            23718307edd42846f8bd00bf28b1002203790271c3f382007047ff207047
            00bf002310b50446194601220068fff7c2fa206803211c30fff7b9fa2068
            ff210430fff7b4fa012320681a46bde810400021fff7b0ba00b101b97047
            70b516460d4648220021044600f06dfc731e1f2b84bf0123a4f844304ff0
            000398bfa4f844601946012228462560fff794fa206800212430fff78bfa
            206803211c30fff786fa2068ff210430fff781fa206800211830fff77cfa
            20680321bde87040fff776baf8b138b5002304461d46194601220068fff7
            70fa206884f846501c300321fff765fa2068ff210430fff760fa20682946
            1830fff75bfa20680321bde83840fff755ba704708b1072900d9704738b5
            022204460d4600680121fff75afa00b938bd2068102220300421fff752fa
            01280ed020682430fff73cfa01212368a9400143c9b203f12400bde83840
            fff72fba2046fff766ffece700bf08b1072900d9704738b5022204460d46
            00680121fff730fa00b938bd2068102220300421fff728fa01280fd02068
            2430fff712fa01212368a94020ea0101c9b203f12400bde83840fff704ba
            2046fff73bffebe7002330b583b0019338b104460d46022201210068fff7
            06fa10b9019803b030bd206803211c30fff7ebf9206829462830fff7b6f9
            2068022220300121fff7f2f90128f7d120680830fff7acf90190019803b0
            30bd38b5104b082905465c5c00680cd90c30fff7cef92b6844ea0001c9b2
            03f10c00bde83840fff7c2b90830fff7c1f92b6844ea0001c9b203f10800
            bde83840fff7b5b900bfa41b000038b5104b082905465c5c00680cd90c30
            fff7aaf92b6820ea0401c9b203f10c00bde83840fff79eb90830fff79df9
            2b6820ea0401c9b203f10800bde83840fff791b900bfa41b000070b50446
            16461d46016001f108000021fff784f9206800210c30fff77ff931462068
            fff74bf9206829460430fff746f9206800211030fff741f9206800211830
            fff73cf9206800212030fff737f9206800212830fff732f9206800213030
            fff72df9206800213830fff728f9206800214030fff723f9206800214830
            fff71ef9206800215030fff719f9206800215830fff714f9206800216030
            fff70ff9206800216830fff70af9206800217030fff705f9206800217830
            fff700f9206800218030fff7fbf820680021bde870408830fff7f4b870b5
            4c1e0f2c1dd8c2b105460c4616460d4b006853f8213000211844fff7e4f8
            0a4b286853f8243031461844fff7dcf821462846bde87040fff730bfbde8
            7040fff750bf70bd00bffc1b0000b81b000070b506460c46027101f18005
            3160204600210434fff7f0f8ac42f8d13379012b21d00ad3022b07d13068
            4ff0ff31bde870408030fff7b0b870bd3068ff218030fff7daf83068ff21
            8430fff7d5f83068ff218830fff7d0f83068ff21bde870408c30fff7c9b8
            30684ff6ff718030fff7abf830684ff6ff71bde870408430fff7a3b800bf
            1f290b4600d970470068114600eb8300fff780b838b503790446012b0d46
            21d008d3022b05d1bde838400068a030fff771b838bd0068c9b2a030fff7
            9bf82068c5f30721a430fff795f82068c5f30741a830fff78ff82068290e
            ac30bde83840fff788b8006889b2a030fff76bf82068290ca430bde83840
            fff764b81f2900d9704710b5046804eb81042046fff774f840f00801c9b2
            2046bde81040fff76ab81f2900d9704710b5046804eb81042046fff762f8
            20f008012046bde81040fff759b800bf38b5012403790546012b04fa01f4
            20d009d3022b06d100682146bde838408030fff716b838bd006821468030
            fff740f82868210a8430fff73bf82868210c8830fff736f82868210e8c30
            bde83840fff72fb8006821468030fff712f82868210c8430bde83840fff7
            0bb800bf4ff602020b4bd3f84c1191420bd1d3f8982042f48072c3f89820
            d3f8982022f08062c3f89820044a536943f400735361fef7fabe00800340
            00ed00e0f0b42e4a82b0d2f8983013f0806324d1d2f89810c9043ad50124
            032102208df806108df807108df800308df802308df801408df803408df8
            04008df80500d2f89c3002a9c3f382130b4413f8083ca34231d002d31a49
            1b4b08e0d2f850111a4a11f0040f194b18bf134615490b60184f184e194d
            194c1a481a4a1b493b6033602b6023600360116002b0f0bc7047174b0b4a
            0f4913600b600e4f104e104d1148114c0d4a12493b6033602b6004601160
            02b0f0bc70474ff40043d6e7008003400400002040420f0080f0fa024078
            7d011400002018000020080000200c000020100000201c000020c00e1602
            003b5808801d2c04f0b540f69f738bb004224ff0a0416248fff7f2fd0023
            0193019a604b9a4205dc019a01320192019a9a42f9dd00230093009a5b4b
            9a4205dc009a01320092009a9a42f9dd082257495748fff7b7fc5648fff7
            eafc54490320fef7f4fe524a00210120fef723ff2022002102a800f01ef9
            012325224d494e48fff71cfcfff746ff02224c494c48fff749fe05220021
            4a48fff786fe052201214748fff781fe052202214548fff77cfe444b4348
            1968fff781fe432200214048fff772fe432201213d48fff76dfe05220221
            3b48fff768fe00213948fff7a2fe01213748fff79efe4ff0080c10224ff0
            600e50214ff480454ff0402600200127314b2d4cc3f804c05a60304a83f8
            23e3dff8c0c083f824131168c3f88050dcf848e001eb81012ef04002ccf8
            4820284a7065c2f88001c2f88801c2f884013761c3f880517160164ec2f8
            8071c2f888711d602046fff712fca8b19df80830412bf7d1012200251146
            30468df80850fff7b1fd30462a460121fff7acfd2046fff7fdfb0028e9d1
            202202a92046fff7cafb0028e2d12046fff7f1fb0028fad1f2e790060020
            1fd613004f973100004000504806002000200050d405002000100030cc05
            00202000002000e100e01400002000000842008003404ff0402301221a61
            bff34f8f704700bf00b5002183b01248fff72afe01211048fff726fe0021
            0e48fff734fe01210c48fff730fe00210a48fff708fe01210848fff704fe
            0021074a0191019b9342fbdc019b01330193019b9342f9ddf4e700bfcc05
            00207fba8c0100214ff480420448044bc0f88811c3f880200348fff7f8bd
            0000084200e100e0cc05002070b50f4e0f4d761bb61018bf002405d00134
            55f8043b9847a642f9d10a4e0b4d00f044f9761bb61018bf002406d00134
            55f8043b9847a642f9d170bd70bd00bf5c1c00005c1c0000641c00005c1c
            000070b4860746d0541e002a41d0cab2034602e014f1ff343bd303f8012b
            9d07f8d1032c2ed9cdb245ea05250f2c45ea054519d9264603f11002103e
            0f2e42f8105c42f80c5c42f8085c42f8045c02f11002f2d8a4f1100222f0
            0f0204f00f041032032c13440dd91e462246043a032a46f8045bfad8221f
            22f003020432134404f003042cb1c9b21c4403f8011b9c42fbd170bc7047
            14460346c2e700bf024b13b1024800f005b8704700000000a51a00000023
            01461a46184600f01eb838b50a4c0a4d641ba4100ad004f18043013b05eb
            8305013c55f804399847002cf9d1bde8384000f0c1b800bf681c0000641c
            0000704700bf704700bf2de9f8432c4d0646286898460f469146fff7f2ff
            294b1c68d4f84831002b3ed05a681f2a1cdc02f1010e76b1012103eb8204
            c4f88890d3f8880191400843022ec3f88801c4f8088123d00232c3f804e0
            286843f82270fff7d1ff0020bde8f883174b0bb34ff4c870aff300800346
            d8b10020d4f848114ff0010e586019600246c4f84831c3f88801c3f88c01
            002edcd0cce7d3f88c010143c3f88c11d5e704f5a673c4f84831bbe72868
            fff7a7ff4ff0ff30bde8f88300bf50040020401c00000000000000010204
            0810204080010204081020408000000000000000140000001c0000002400
            00002c000000340000003c000000440000004c000000540000005c000000
            640000006c000000740000007c000000840000008c000000000000001000
            000018000000200000002800000030000000380000004000000048000000
            500000005800000060000000680000007000000078000000800000008800
            000028000020f8b500bff8bc08bc9e467047f8b500bff8bc08bc9e467047
            851a0000d5040000b1040000000000000000000000000000003b5808801d
            2c04003b5808003b5808003b5808003b5808c00e16020200000000000000
            00000000140300207c030020e40300200000000000000000000000000000
            000000000000000000000000000000000000000000000000000000000000
            000000000000000000000000000000000000000000000000000000000000
            000000000000000000000000000000000000000000000000000000000000
            000000000000000000000000000000000000000000000000000000000000
            00000000000000000000000000000000000001000000000000000e33cdab
            34126de6ecde05000b000000000000000000000000000000000000000000
            000000000000000000000000000000000000000000000000000000000000
            000000000000000000000000000000000000000000000000000000000000
            000000000000000000000000000000000000000000000000000000000000
            000000000000000000000000000000000000000000000000000000000000
            000000000000000000000000000000000000000000000000000000000000
            000000000000000000000000000000000000000000000000000000000000
            000000000000000000000000000000000000000000000000000000000000
            000000000000000000000000000000000000000000000000000000000000
            000000000000000000000000000000000000000000000000000000000000
            000000000000000000000000000000000000000000000000000000000000
            000000000000000000000000000000000000000000000000000000000000
            000000000000000000000000000000000000000000000000000000000000
            000000000000000000000000000000000000000000000000000000000000
            000000000000000000000000000000000000000000000000000000000000
            000000000000000000000000000000000000000000000000000000000000
            000000000000000000000000000000000000000000000000000000000000
            000000000000000000000000000000000000000000000000000000000000
            000000000000000000000000000000000000000000000000000000000000
            000000000000000000000000000000000000000000000000000000000000
            000000000000000000000000000000000000000000000000000000000000
            000000000000000000000000000000000000000000000000000000000000
            000000000000000000000000000000000000000000000000000000000000
            000000000000000000000000000000000000000000000000000000000000
            000000000000000000000000000000000000000000000000000000000000
            000000000000000000000000000000000000000000000000000000000000
            000000000000000000000000000000000000000000000000000000000000
            000000000000000000000000000000000000000000000000000000000000
            000000000000000000000000000000000000000000000000000000000000
            000000000000000000000000000094060020000000000000000000000000
            <crc>
                29d4
            </crc>
        </region>
    </nvm>
</Actel_Data_File>
