<Actel_Data_File>
    <format name="NVM File" version="01.00.00"/>
    <header>
        <die>
            M2S025
        </die>
        <family>
            SmartFusion2
        </family>
        <module>
            
        </module>
        <package>
            256 VF
        </package>
        <version>
            11.7.2.2
        </version>
    </header>
    <nvm>
        <region name="PGM_store" address="0x000000" retrieveAddressFromFile="false" size="9408" format="HEX" type="Data Storage" wordSize="8" numberWords="9408" memFile="F:/PWM_6ch_16b_Creative/PWM_6ch_16b_Creative/SoftConsole/SF2_GNU_SC4_pwm_slow_blink/Production/SF2_GNU_SC4_pwm_slow_blink.hex" memType="INTELHEX" memFileTimeStamp="1486888208" clientType="public" program="true">
            00000120910100007f030000810300008303000085030000870300000000
            0000000000000000000000000000890300008b030000000000008d030000
            8f0300009103000093030000990d0000b50d0000990300009b0300009d03
            00009f030000a1030000a3030000a1060000bd060000a9030000ab030000
            ad030000af030000b1030000b3030000b50300006d070000b9030000bb03
            0000bd030000bf030000c1030000c3030000c5030000710e0000110f0000
            cb030000cd030000cf030000d1030000d3030000d5030000d7030000d903
            0000db030000dd030000df030000e1030000e3030000e5030000e7030000
            e9030000eb030000ed030000ef030000f1030000f3030000f5030000f703
            0000f9030000fb030000fd030000ff030000010400000304000005040000
            07040000090400000b0400000d0400000f04000011040000130400001504
            000017040000190400001b0400001d0400001f0400002104000023040000
            2504000027040000290400002b0400002d0400002f040000310400003304
            000000000000000000004ff0000bdff8be020068dff8b612096801f00301
            00f01c00142801d14bf0020b002901d04bf0010bbbf1000f05d0a748a749
            dff8722200f09ff8a64880470bf0020abaf1000f0cd0dff86e02dff86e12
            02680b680fb44ff000024ff0ff0302600b609d489d4a9e4b022808d1dff8
            3e120a60dff842120a60dff836120b60012808d1dff82e120a60dff82a12
            0a60dff81e120b609348002809d193489349944a00f032f893489449944a
            00f02df894489449954a00f028f894489549dff8e62100f05af8bbf1000f
            12d092489249dff8da2100f051f80bf0020abaf1000f07d00fbc02600b60
            00bfaff30080aff30080dff828020ff2030e00474ff000004ff00001dff8
            1cf2fee72de9f841884225d0b2eb010200d5fee740ea010313f0030302d0
            00f01df819e04ff0000390461211f7d09a421cbff0c8f0c103f10103f8d1
            08f00f08b8f1000f08d004780c7000f1010001f10101b8f10108f6d1bde8
            f88108b54ff0000303780b7000f1010001f10101013af7d108bd884237d0
            00f00306002e14d04ff00405a5eb06044ff0080707fb06f8914669fa08f9
            002c07d080f8009069fa07f900f10100013cf5e74ff000060f46091a8846
            0911914614461546b14206d018bfa0e8340206f10106b142f8d108f00f08
            b8f1000f07d002704fea322200f10100b8f10108f4e77047fee7fee7fee7
            fee7fee7fee7fee7fee7fee7fee7fee7fee7fee7fee7fee7fee7fee7fee7
            fee7fee7fee7fee7fee7fee7fee7fee7fee7fee7fee7fee7fee7fee7fee7
            fee7fee7fee7fee7fee7fee7fee7fee7fee7fee7fee7fee7fee7fee7fee7
            fee7fee7fee7fee7fee7fee7fee7fee7fee7fee7fee7fee7fee7fee7fee7
            fee7fee7fee7fee7fee7fee7fee7fee7fee7fee7fee7fee7fee7fee7fee7
            fee7fee7fee7fee7fee7fee7fee7fee7fee7fee7fee7fee7fee770470000
            0000a2a2a2a2008003400880034010800340308003403480034038800340
            18080240000000f000200000012079110000000000000000000001000000
            00000000000000000000000090010000c0040000c0040000902000009020
            0000000000203004002030040020300600203006002000f00020851e0000
            4512000000000000000000000000000010b5054c237833b9044b13b10448
            aff300800123237010bd300400200000000068200000084b10b51bb10848
            0849aff300800848036803b910bd074b002bfbd0bde81040184700bf0000
            00006820000034040020000000200000000001607047006870470eb503fa
            01f303ea020301686fea020201ea020141ea030101600ebd006800ea0200
            20fa01f0704701807047008870470eb503fa01f303ea020301886fea0202
            01ea020141ea030101800ebd008800ea020020fa01f07047017070470078
            70470eb503fa01f303ea020301786fea020201ea020141ea030101700ebd
            007800ea020020fa01f070470268137a03f00f030c2b0ad8dfe803f00709
            0e126d090a09090909096d00836a1bb97047c369002bfbd01847436a002b
            f7d01847283202f07043c2f31302520103f10071895810b511f0ff0f0446
            09d0c16a39b1884723682833c3f31302520103f070431a4402f100735b68
            13f0ff0f0bd0236b4bb1204698472268283202f07043c2f3130203eb4212
            02f100739b6813f0ff0f0bd0636b4bb1204698472268283202f07043c2f3
            130203eb421202f10073db6813f0ff0f0bd0a36b4bb12046984722682832
            02f07043c2f3130203eb421202f10072136913f0ff0f09d0e36b3bb12046
            bde810409fe7036a002b98d0184710bd684620f007018d4601b50348fff7
            7effbde8014085467047dc040020684620f007018d4601b50348fff770ff
            bde80140854670479c04002030b4124c82b0236823f004032360636803f0
            01030193019babb181b1451e002201e08a420bd015f8013f013223616368
            03f001030193019b002bf2d11146084602b030bc70471946f9e700bf0060
            01400b4b10b50b4c1988236889b233b10a4a10689847094a002313702360
            084b1a46196841f0010119601368db07fcd410bd6c040020680400207404
            00205804002000600140944af8b553689468dbb21c40a0071dd4e10700d4
            f8bd904e3378022b60d0052b2fd0012b4ed08b4a8c4c936823f001039360
            23683bb18a4a002110689847894a00231370236000233370f8bd1069824e
            20f4ff43327823f07f039db2c0b2052a00f2bb80dfe812f090009c009c00
            a40063004f007c4b1a68002a40f08e80e307c8d57a4c236883b9794b1b68
            002b00f0d180784898472060236833b96d4a0321936823f0010393603170
            23686f4c002b40f0b480674a0321936823f0010393603170f8bd6c4c2388
            9bb2002b40f09280644b1b78002b9dd0bde8f840fff76ebf624c2368002b
            f3d0624d21682868fff73dff23689842ddd223682a681b1a104423602860
            f8bd002db4d1554b534f1a683b6850702bb1104602219847514b3d601d70
            00233370e2077ff574af7be7002d2fd1524a4a4913880d689bb22b4413f8
            013cf12b00f0a5804d49138809889bb28b4206d217881388bfb201339bb2
            e85513801388454a9bb299427ff451af3b4f13883a6899b2002ad3d02846
            9047394a002313703b60cce7002dccd0f12800f09080354b1a68002ac5d0
            1b68984737e7002d3ff435af304b1a68002af5d12fe7002db8d0334b1b78
            9842ead12f4a002313801188264d13882f68013389b29bb2042513807854
            3570a5e7204d2b68002b9fd01f4a0021106898471e4a002313702b6096e7
            244f21883d6889b22846fff7b5fe23889bb298421cd30022174b22801b68
            002b3ad002233370f8bd154d21682868fff7a3fe2a6823680244181a2a60
            2060f8bd0b4b1b78002b3ff436affff7bdfe32e7238805441b1a9bb23d60
            2380f8bd00bf00600140780400206804002074040020580400205c040020
            700400205004002064040020600400206c0400204c040020790400205404
            002003233370f8bd1188104f13888ab29bb23968a8541d4415f8010c0029
            3ff43baf3b68984737e70a4b00271f8019881a88084d013292b21a801b88
            2d688ab29bb20421a8543170ef5427e700bf5c0400206c04002074040020
            2c4a036890422de9f04f1c68d3f81880d3f804c0d3f828e01f6b5e6bdd69
            2cd0254a26491346d1f84890dff898a04ff0030b026080f804b049f48069
            0820c1f84890caf88001886c20f480608864116821f00041116024f00102
            1a60c3f81880c3f804c01a6842f001021a60c3f828e01f635e63dd61bde8
            f08f104a1049936cdff8409043f400734ff0020b4ff0040a016080f804b0
            9364c9f880a1d2f84890036829f4007090640a6822f000420a60d1e700bf
            a005002000100140008003400010004000e100e0026830b49368dd053dd4
            0369c568ab4210d28168194401e0ab420bd211f8014b0133546194680361
            e405f5d5ab4201d230bc70479368dd0510d4c36985699d4224d941691944
            01e0ab4207d211f8014b013354619468c361e405f5d5436a002be6d0c169
            83699942e2d3906810f48070ded1202301e0013bdad050619168c905f9d5
            30bc7047c5680369cfe7436a002bebd1cde710b590f8803082b0022b0cd0
            012b18d003689a68520604d41a6900929a685206fad502b010bd04462368
            03e01969626f00911ab99a685106f8d5f2e700989047f2e7026893685c06
            ebd4036bc16a14698b42019404d2826a0199d154036b0268916801334906
            0363f0d502b010bd00bf70b5036882b01a6a044692071d460ed590f88020
            022a36d0012a9a6803d190e01a6901929a685206fad50222da602a6ad607
            09d594f88020022a28d02046fff75dff23680122da602a6ad00648d42a6a
            51075cd42a6a12070bd5da6a94f8801042f008020229da625cd001297fd0
            0822da602b6a9b060dd402b070bd1969626f0191002a59d19a685606f7d5
            cde7a26f5a61d7e72046fff77bff236a256b002b63d02368002210216262
            6261a261e261d9609a6a0a439a62da6a002642f00c0226612046da62fff7
            19ffe36f266313b12946a06a984723682022da6002b070bd2046fff755ff
            236a2bb1a06a216b98472046fff703ff236810219a6a012022f010026062
            9a62d9602a6a5107a2d5da6a204642f00402da62fff78cfe23680422da60
            97e71a68a16f22f47f0222f47f4242f480721a60596199e7019890472368
            a1e750063ff571af226be16a18699142019004d9a36a01999954226b2368
            9968013249062263f0d55fe72368a4e7002323612046fff7c2fe236878e7
            684620f007018d4601b50348fff73affbde8014085467047a00500206846
            20f007018d4601b50348fff72cffbde80140854670471c0500202de9f041
            224cdff894e02468214d4fea840c0ceb04064fea8608f70108f1402606f5
            8036be44cef8043045447060b1606e68b2f5803f4fea16464fea06466e60
            1bd86b6892b214491a4300236a600b616444104aa3001a445168e40104f1
            844303f5201341f4e001012500245160c3f8c051c3f8cc41bde8f081074b
            a2f5803201f5803100f580301a61d9609860dfe798040020084001407c04
            0020c0012842684620f007018d4679b52048204a0368204c03eb83018900
            03f52875012644f825600a4451683344042b08bf002321f4e00151600360
            184b1a697ab11748016804290cbf0021013101609868d9681b7dfff786ff
            bde879408546704702680c4902eb8202920011444a68084c12f4e002f0d1
            0a4d5968012022602a6018700029e8d08847bde879408546704794040020
            08400140000028427c04002098040020684620f007018d46244b31b51b68
            13f4706f19d0224c23689900ca18d20102f1844202f52012d2f808223ab1
            1d4a02205568107015b1a847236899000b441a4adb011a4453680bbb144b
            1b6813f4704f05d0144b04205a68187002b19047bde83140124a12490123
            c2f8c8318546c2f8803ac2f84834c1f8803ac2f8c836c1f8843ac2f84839
            c1f8883a7047054b03205a681870002ad7d09047d5e70040014094040020
            7c04002008022842000028420400284238b5104b082905465c5c00680cd9
            0c30fff7d4fa2b6840ea0401c9b203f10c00bde83840fff7c8ba0830fff7
            c7fa2b6840ea0401c9b203f10800bde83840fff7bbba00bf0820000038b5
            104b082905465c5c00680cd90c30fff7b0fa2b6820ea0401c9b203f10c00
            bde83840fff7a4ba0830fff7a3fa2b6820ea0401c9b203f10800bde83840
            fff797ba00bf0820000070b5044616461d46016001f108000021fff78afa
            206800210c30fff785fa31462068fff751fa206829460430fff74cfa2068
            00211030fff747fa206800211830fff742fa206800212030fff73dfa2068
            00212830fff738fa206800213030fff733fa206800213830fff72efa2068
            00214030fff729fa206800214830fff724fa206800215030fff71ffa2068
            00215830fff71afa206800216030fff715fa206800216830fff710fa2068
            00217030fff70bfa206800217830fff706fa206800218030fff701fa2068
            00218830bde87040fff7fab970b54c1e0f2c04d822b9bde87040fff769bf
            70bd06460c4615460b4a036852f8210000211844fff7e5f9084a336852f8
            240029461844fff7ddf930462146bde87040fff72bbf00bf1c200000c41f
            00004ff602020c4bd3f84c11914206d00b4a536943f400735361fff750b9
            d3f8982042f48072c3f89820d3f8982022f08062c3f89820ebe700bf0080
            034000ed00e0012910b50c460ad0022908d0032906d0042904d0052902d0
            06291ad010bd00f079fb0022002300f017fa11a3d3e9002300f0c4fb124b
            002200f00efa00f0d0fd00f01efe2146bde8104002460d48fff78fbf00f0
            5ffb0022002300f0fdf906a3d3e9002300f0aafb0022074be4e700bf1818
            18181818c83fd9d8d8d8d8d8c83f00002840240600200000264000b5a248
            9fb04ff0a041312240f28f13fff7fefe00200621fff7acff00230193019b
            9b4a934205dc019b01330193019b9342f9dd00230293029b954a934205dc
            029b01330293029b9342f9dd00230393039b8f4a934205dc039b01330393
            039b9342f9dd00230493049b894a934205dc049b01330493049b9342f9dd
            85480621fff778ff00230593059b814a934205dc059b01330593059b9342
            f9dd7e480621fff768ff00230693069b794a934205dc069b01330693069b
            9342f9dd77480621fff758ff00230793079b714a934205dc079b01330793
            079b9342f9dd70480621fff748ff00230893089b694a934205dc089b0133
            0893089b9342f9dd69480621fff738ff00230993099b614a934205dc099b
            01330993099b9342f9dd62480621fff728ff00230a930a9b594a934205dc
            0a9b01330a930a9b9342f9dd5b480621fff718ff00230b930b9b514a9342
            05dc0b9b01330b930b9b9342f9dd54480621fff708ff00230c930c9b494a
            934205dc0c9b01330c930c9b9342f9dd4d480621fff7f8fe00230d930d9b
            414a934205dc0d9b01330d930d9b9342f9dd46480621fff7e8fe00230e93
            0e9b394a934205dc0e9b01330e930e9b9342f9dd3f480621fff7d8fe0023
            0f930f9b314a934205dc0f9b01330f930f9b9342f9dd38480621fff7c8fe
            00231093109b294a934205dc109b01331093109b9342f9dd31480621fff7
            b8fe00231193119b214a934205dc119b01331193119b9342f9dd2a480621
            fff7a8fe00231293129b194a934205dc129b01331293129b9342f9dd2348
            0621fff798fe00231393139b114a934205dc139b01331393139b9342f9dd
            1c480621fff788fe00231493149b094a934205dc149b01331493149b9342
            f9dd15480621fff778fe00231593159b25e0240600207f841e0000002041
            0000a0410000f04100002042000048420000704200008c420000a0420000
            b4420000c8420000dc420000f0420000024300000c430000164300002043
            00002a43374a934205dc159b01331593159b9342f9dd34480621fff741fe
            00231693169b2f4a934205dc169b01331693169b9342f9dd00231793179b
            294a934205dc179b01331793179b9342f9dd00231893189b234a934205dc
            189b01331893189b9342f9dd00231993199b1d4a934205dc199b01331993
            199b9342f9dd00231a931a9b174a934205dc1a9b01331a931a9b9342f9dd
            00231b931b9b114a934205dc1b9b01331b931b9b9342f9dd00231c931c9b
            0b4a934205dc1c9b01331c931c9b9342f9dd00231d931d9b054a93423ff7
            36ae1d9b01331d931d9b9342f9dd2ee600bf7f841e000000344381f00041
            02e000bf83f0004330b54fea41044fea430594ea050f08bf90ea020f1fbf
            54ea000c55ea020c7fea645c7fea655c00f0e2804fea5454d4eb5555b8bf
            6d420cdd2c4480ea020281ea030382ea000083ea010180ea020281ea0303
            362d88bf30bd11f0004f4fea01314ff4801c4cea113102d0404261eb4101
            13f0004f4fea03334cea133302d0524263eb430394ea050f00f0a780a4f1
            0104d5f1200e0ddb02fa0efc22fa05f2801841f1000103fa0ef2801843fa
            05f359410ee0a5f120050ef1200e012a03fa0efc28bf4cf0020c43fa05f3
            c01851ebe37101f0004507d54ff0000edcf1000c7eeb00006eeb0101b1f5
            801f1bd3b1f5001f0cd349085fea30004fea3c0c04f101044fea445212f5
            800f80f09a80bcf1004f08bf5fea500c50f1000041eb045141ea050130bd
            5fea4c0c404141eb010111f4801fa4f10104e9d191f0000f04bf01460020
            b1fa81f308bf2033a3f10b03b3f120020cda0c3208dd02f1140cc2f10c02
            01fa0cf021fa02f10ce002f11402d8bfc2f1200c01fa02f120fa0cfcdcbf
            41ea0c019040e41aa2bf01eb0451294330bd6fea04041f3c1cda0c340edc
            04f11404c4f1200220fa04f001fa02f340ea030021fa04f345ea030130bd
            c4f10c04c4f1200220fa02f001fa04f340ea0300294630bd21fa04f02946
            30bd94f0000f83f4801306bf81f480110134013d4ee77fea645c18bf7fea
            655c29d094ea050f08bf90ea020f05d054ea000c04bf1946104630bd91ea
            030f1ebf0021002030bd5fea545c05d14000494128bf41f0004130bd14f5
            80043cbf01f5801130bd01f0004545f0fe4141f470014ff0000030bd7fea
            645c1abf194610467fea655c1cbf0b46024650ea013406bf52ea033591ea
            030f41f4002130bd00bf90f0000f04bf0021704730b54ff4806404f13204
            4ff000054ff0000150e700bf90f0000f04bf0021704730b54ff4806404f1
            320410f0004548bf40424ff000013ee700bf42004feae2014fea31014fea
            02701fbf12f07f4393f07f4f81f06051704792f0000f14bf93f07f4f7047
            30b54ff4607401f0004521f0004120e700bf50ea010208bf704730b54ff0
            00050ae050ea010208bf704730b511f0004502d5404261eb41014ff48064
            04f132045fea915c3ff4dcae4ff003025feadc0c18bf03325feadc0c18bf
            033202ebdc02c2f1200300fa03fc20fa02f001fa03fe40ea0e0021fa02f1
            1444c1e600bf70b54ff0ff0c4cf4e06c1cea11541dbf1cea135594ea0c0f
            95ea0c0f00f0def82c4481ea030621ea4c5123ea4c5350ea013518bf52ea
            033541f4801143f4801338d0a0fb02ce4ff00005e1fb02e506f00042e0fb
            03e54ff00006e1fb03569cf0000f18bf4ef0010ea4f1ff04b6f5007f64f5
            407404d25fea4e0e6d4146eb060642eac62141ea55514feac52040ea5e50
            4feace2eb4f1fd0c88bfbcf5e06f1ed8bef1004f08bf5fea500e50f10000
            41eb045170bd06f0004646ea010140ea020081ea0301b4eb5c04c2bfd4eb
            0c0541ea045170bd41f480114ff0000e013c00f3ab8014f1360fdebf0020
            01f0004170bdc4f10004203c35da0c341bdc04f11404c4f1200500fa05f3
            20fa04f001fa05f240ea020001f0004221f0004110ebd37021fa04f642eb
            06015eea430e08bf20ead37070bdc4f10c04c4f1200500fa04f320fa05f0
            01fa04f240ea020001f0004110ebd37041f100015eea430e08bf20ead370
            70bdc4f1200500fa05f24eea020e20fa04f301fa05f243ea020321fa04f0
            01f0004121fa04f220ea020000ebd3705eea430e08bf20ead37070bd94f0
            000f0fd101f00046400041eb010111f4801f08bf013cf7d041ea060195f0
            000f18bf704703f00046520043eb030313f4801f08bf013df7d043ea0603
            704794ea0c0f0cea135518bf95ea0c0f0cd050ea410618bf52ea4306d1d1
            81ea030101f000414ff0000070bd50ea410606bf1046194652ea430619d0
            94ea0c0f02d150ea013613d195ea0c0f05d152ea03361cbf104619460ad1
            81ea030101f0004141f0fe4141f470014ff0000070bd41f0fe4141f47801
            70bd70b54ff0ff0c4cf4e06c1cea11541dbf1cea135594ea0c0f95ea0c0f
            00f0a7f8a4eb050481ea030e52ea03354fea013100f088804fea03334ff0
            805545ea131343ea12634fea022245ea111545ea10654fea00260ef00041
            9d4208bf964244f1fd0404f5407402d25b084fea3202b61a65eb03055b08
            4fea32024ff480104ff4002cb6eb020e75eb030e22bfb61a754640ea0c00
            5b084fea3202b6eb020e75eb030e22bfb61a754640ea5c005b084fea3202
            b6eb020e75eb030e22bfb61a754640ea9c005b084fea3202b6eb020e75eb
            030e22bfb61a754640eadc0055ea060e18d04fea051545ea16754fea0616
            4feac30343ea52734feac2025fea1c1cc0d111f4801f0bd141ea00014ff0
            00004ff0004cb6e711f4801f04bf01430020b4f1fd0c88bfbcf5e06f3ff6
            afaeb5eb030c04bfb6eb020c5fea500c50f1000041eb045170bd0ef0004e
            4eea113114eb5c04c2bfd4eb0c0541ea045170bd41f480114ff0000e013c
            90e645ea060e8de60cea135594ea0c0f08bf95ea0c0f3ff43baf94ea0c0f
            0ad150ea01347ff434af95ea0c0f7ff425af104619462ce795ea0c0f06d1
            52ea03353ff4fdae1046194622e750ea410618bf52ea43067ff4c5ae50ea
            41047ff40daf52ea43057ff4ebae12e74fea4102b2f1e04324bfb3f5001c
            dcf1fe5c0dd901f0004c4feac0024cea5070b2f1004f40eb830008bf20f0
            0100704711f0804f21d113f13872bcbf01f00040704741f480114fea5252
            c2f11802c2f1200c10fa0cf320fa02f018bf40f001004feac1234fead323
            03fa0cfc40ea0c0023fa02f34fea4303cce77fea625307d150ea01331ebf
            4ff0fe4040f44000704701f0004040f0fe4040f40000704700bf4fea4002
            b2f1fe4f0fd34ff09e03b3eb12620dd94fea002343f0004310f0004f23fa
            02f018bf404270474ff00000704712f1610f01d1420205d110f0004008bf
            6ff0004070474ff00000704770b50f4e0f4d761bb61018bf002405d00134
            55f8043b9847a642f9d10a4e0b4d00f0e0f8761bb61018bf002406d00134
            55f8043b9847a642f9d170bd70bd00bf8020000080200000882000008020
            0000024b13b1024800f005b8704700000000f51e00000146002002460346
            00f016b838b5084b084ded1aac1018bfed1805d0013c55f8043d9847002c
            f9d1bde8384000f0aeb8882000008c2000002de9f047254c064625688846
            d5f8484192469946c4b360681f2817dc411c76b104eb8003c3f888a0d4f8
            8851012282401543022ec4f88851c3f808911ed0831c6160002044f82380
            bde8f087144b03b34ff4c870aff300800446d0b1d5f84831002784e88800
            3846c5f848410121c4f88871c4f88c71002ee1d0d1e7d4f88c311a43c4f8
            8c21dae705f5a674c5f84841c1e74ff0ff30bde8f08700bf642000000000
            000000000000140000001c000000240000002c000000340000003c000000
            440000004c000000540000005c000000640000006c000000740000007c00
            0000840000008c0000000001020408102040800102040810204080000000
            000000001000000018000000200000002800000030000000380000004000
            000048000000500000005800000060000000680000007000000078000000
            80000000880000004300000008000020f8b500bff8bc08bc9e467047f8b5
            00bff8bc08bc9e467047d51e0000e5040000c10400000000000000000000
            0000000000000000f40200205c030020c403002000000000000000000000
            000000000000000000000000000000000000000000000000000060200000
            000000000000000000000000000000000000000000000000000000000000
            000000000000000000000000000000000000000000000000000000000000
            000000000000000000000000000000000000000000000000000000000000
            000000000000000000000000000000000000000000000100000000000000
            0e33cdab34126de6ecde05000b0000000000000000000000000000000000
            000000000000000000000000000000000000000000000000000000000000
            000000000000000000000000000000000000000000000000000000000000
            000000000000000000000000000000000000000000000000000000000000
            000000000000000000000000000000000000000000000000000000000000
            000000000000000000000000000000000000000000000000000000000000
            000000000000000000000000000000000000000000000000000000000000
            000000000000000000000000000000000000000000000000000000000000
            000000000000000000000000000000000000000000000000000000000000
            000000000000000000000000000000000000000000000000000000000000
            000000000000000000000000000000000000000000000000000000000000
            000000000000000000000000000000000000000000000000000000000000
            000000000000000000000000000000000000000000000000000000000000
            000000000000000000000000000000000000000000000000000000000000
            000000000000000000000000000000000000000000000000000000000000
            000000000000000000000000000000000000000000000000000000000000
            000000000000000000000000000000000000000000000000000000000000
            000000000000000000000000000000000000000000000000000000000000
            000000000000000000000000000000000000000000000000000000000000
            000000000000000000000000000000000000000000000000000000000000
            000000000000000000000000000000000000000000000000000000000000
            000000000000000000000000000000000000000000000000000000000000
            000000000000000000000000000000000000000000000000000000000000
            000000000000000000000000000000000000000000000000000000000000
            000000000000000000000000000000000000000000000000000000000000
            000000000000000000000000000000000000000000000000000000000000
            000000000000000000000000000000000000000000000000000000000000
            000000000000000000000000000000000000000000000000000000000000
            000000000000000000000000000000000000000000000000000000000000
            000000000000000000000000000000000000
            <crc>
                2524
            </crc>
        </region>
    </nvm>
</Actel_Data_File>
