<Actel_Data_File>
    <format name="NVM File" version="01.00.00"/>
    <header>
        <die>
            M2S025
        </die>
        <family>
            SmartFusion2
        </family>
        <module>
            
        </module>
        <package>
            256 VF
        </package>
        <version>
            11.8.0.26
        </version>
    </header>
    <nvm>
        <region name="PGM_store" address="0x000000" retrieveAddressFromFile="false" size="19008" format="HEX" type="Data Storage" wordSize="8" numberWords="19008" memFile="C:/Users/CalPlug/Desktop/Servo-arm2/SoftConsole/servoarm/Release/servoarm.hex" memType="INTELHEX" memFileTimeStamp="1512416923" clientType="public" program="true">
            00000120910100007f030000810300008303000085030000870300000000
            0000000000000000000000000000890300008b030000000000008d030000
            8f0300009103000093030000e10c0000fd0c0000990300009b0300009d03
            00009f030000a1030000a3030000a5030000a7030000a9030000ab030000
            8d150000af030000b1030000b3030000b5030000f1050000b9030000bb03
            0000bd030000bf030000c1030000c3030000c5030000bd0d0000650e0000
            cb030000cd030000cf030000d1030000d3030000d5030000612f0000d903
            0000db030000dd030000df030000e1030000e3030000e5030000e7030000
            e9030000eb030000ed030000ef030000f1030000f3030000f5030000f703
            0000f9030000fb030000fd030000ff030000010400000304000005040000
            07040000090400000b0400000d0400000f04000011040000130400001504
            000017040000190400001b0400001d0400001f0400002104000023040000
            2504000027040000290400002b0400002d0400002f040000310400003304
            000000000000000000004ff0000bdff8be020068dff8b612096801f00301
            00f01c00142801d14bf0020b002901d04bf0010bbbf1000f05d0a748a749
            dff8722200f09ff8a64880470bf0020abaf1000f0cd0dff86e02dff86e12
            02680b680fb44ff000024ff0ff0302600b609d4800220123022808d1dff8
            3e120a60dff842120a60dff836120b60012808d1dff82e120a60dff82a12
            0a60dff81e120b609148002809d191489149924a00f032f891489249924a
            00f02df892489249934a00f028f892489349dff8e62100f05af8bbf1000f
            12d090489049dff8da2100f051f80bf0020abaf1000f07d00fbc02600b60
            00bfaff30080aff30080dff820020ff2030e00474ff000004ff00001dff8
            14f2fee72de9f841884225d0b2eb010200d5fee740ea010313f0030302d0
            00f01df819e04ff0000390461211f7d09a421cbff0c8f0c103f10103f8d1
            08f00f08b8f1000f08d004780c7000f1010001f10101b8f10108f6d1bde8
            f88108b54ff0000303780b7000f1010001f10101013af7d108bd884237d0
            00f00306002e14d04ff00405a5eb06044ff0080707fb06f8914669fa08f9
            002c07d080f8009069fa07f900f10100013cf5e74ff000060f46091a8846
            0911914614461546b14206d018bfa0e8340206f10106b142f8d108f00f08
            b8f1000f07d002704fea322200f10100b8f10108f4e77047fee7fee7fee7
            fee7fee7fee7fee7fee7fee7fee7fee7fee7fee7fee7fee7fee7fee7fee7
            fee7fee7fee7fee7fee7fee7fee7fee7fee7fee7fee7fee7fee7fee7fee7
            fee7fee7fee7fee7fee7fee7fee7fee7fee7fee7fee7fee7fee7fee7fee7
            fee7fee7fee7fee7fee7fee7fee7fee7fee7fee7fee7fee7fee7fee7fee7
            fee7fee7fee7fee7fee7fee7fee7fee7fee7fee7fee7fee7fee7fee7fee7
            fee7fee7fee7fee7fee7fee7fee7fee7fee7fee7fee7fee7fee770470000
            0000a2a2a2a2008003400880034010800340308003403480034038800340
            18080240000000f00020000001205d140000000000000000000000000000
            0000000090010000b0040000b0040000e0450000e0450000000000206004
            002060040020100600201006002000f00020094300007134000000000000
            10b5054c237833b9044b13b10448aff300800123237010bd600400200000
            0000b44500000c4b43b10c4810b50c49aff300800c48036823b910bd0a48
            036833b97047094b002bf7d0bde810401847064b002bf5d0184700bf0000
            0000b445000064040020000000200000000001607047006870470eb503fa
            01f303ea020301686fea020201ea020141ea030101600ebd006800ea0200
            20fa01f0704701807047008870470eb503fa01f303ea020301886fea0202
            01ea020141ea030101800ebd008800ea020020fa01f07047017070470078
            70470eb503fa01f303ea020301786fea020201ea020141ea030101700ebd
            007800ea020020fa01f070470b4b10b50b4c198823683bb10a4a89b21068
            98470023094a23601370084b1a46196841f0010119601368db07fcd410bd
            9c0400208404002094040020a104002000600140924bf0b55c689a68e4b2
            1440a10785b01fd4e10701d405b0f0bd8d4d2b78022b00f09480052b2ad0
            012b57d0874a894c936823f00103936023683bb1864a0021106898470023
            854a2360137000232b70e1e77f4d1a692b78d0b2052b00f25081dfe813f0
            cb00d700d700df00a00089007b4b1a68002a40f0c980e207cbd5794c2368
            002b00f0fc802368002b6bd06f4926680b68744823f0040307680b604b68
            03f001030393039a92b1002e00f0678100227d1e01e096420ad015f8013f
            01320b614b6803f001030393039b002bf2d1236817449a1a076022609ce7
            634e33889bb2002b37d0594934880b68dff88ce123f00403def800700b60
            4b68a4b203f001030193019a92b1002c00f03c810022781e01e094420ad0
            10f8013f01320b614b6803f001030193019b002bf2d133889bb2934200f2
            ed8000224a4b32801b68002b00f0ee8002232b7064e7454c2368002b40f0
            a880414b1b78002b3ff45baffff72cff57e70321384a936823f001039360
            29704fe716043ff57aaf364b354e1a683368507033b11046022198470023
            324a3360137000232b70e3073ff546af05b0f0bd17042dd4314a2b491388
            0e689bb2334413f8013cf12b00f0bd802d49138809889bb28b4206d21788
            1388bfb201339bb2f055138013889bb29942dcd11c4f13883a6899b2002a
            d4d03046904700231a4a3b601370cde71204cdd5f12800f0ab80164b1a68
            002ac6d01b689847ffe615047ff5fdae114b1a68002af5d1f7e61304b9d5
            144b1b789842ead1002304210f4a297013801188074e13883668013389b2
            9bb213807054a6e700600140a00400208404002094040020a10400207c04
            00208804002090040020820400209c0400209e040020800400208c040020
            424b1b68002b4fd04148984720602368002b7ff4f9ae03213e4a936823f0
            010393602970f0e63b4927680b68384823f00403d0f800e00b604b6803f0
            01030293029a92b1002f5cd000220ef1ff3601e097420ad016f8013f0132
            0b614b6803f001030293029b002bf2d1236893427ff63aaf21680eeb0203
            8a1a036022608ae6254e3368002b3ff446af244a002110683ce733881744
            9a1a92b2cef80070328079e603232b7076e61d4b1b78002b3ff4abaefff7
            43fea7e61a4f11881388d7f800e08ab29bb2b054013bbef1000f3ff422af
            3a68f05c90471de700260422124b2a701e8019881a8889b2013292b21a80
            0a4a1b8812689bb25054d6540de73246a6e63a46b1e72246d1e600bf9804
            002090040020006001408404002094040020a10400207c0400209c040020
            2a4a036890422de9f04f1c68d3f81880d3f804c0d3f828e01f6b5e6bdd69
            2cd04ff0030b4ff0080a214a22491346d1f8489080f804b002601f4849f4
            8069c1f84890c0f880a1886c20f480608864116821f00041116024f00104
            1c60c3f81880c3f804c01a6842f001021a60c3f828e01f635e63dd61bde8
            f08f02234ff004090c490e4a03718b6c02600b4843f400738b64c0f88091
            886c134620f400708864116821f000411160d5e700bf4805002000100140
            0080034000e100e0001000400268f0b49368dd053fd40369c768bb4211d2
            85682b44ee1901e09e420bd013f8011b51619468591be4050161f5d58f42
            01d9f0bc70479368db0511d4c3698569ab4225d246693344354401e09d42
            07d013f8011b516191689c1bc461cc05f5d5436a002be5d0c16983699942
            e1d3906810f48070ddd1202301e0013bd9d050619168c905f9d5f0bc7047
            0169c768cee7436a002bebd1cce710b590f8803082b0022b0cd0012b18d0
            03689a68520604d41a6900929a685206fad502b010bd0446236803e01969
            626f00911ab99a685106f8d5f2e700989047f2e7026893685c06ebd4036b
            c16a14699942019404d9826a0199d154036b02689168013349060363f0d5
            02b010bd00bf70b5036882b01a6a044692071d460ed590f88020022a36d0
            012a9a6803d190e01a6901929a685206fad50222da602a6ad60709d594f8
            8020022a28d02046fff75bff23680122da602a6ad00648d42a6a51075cd4
            2a6a12070bd5da6a94f8801042f008020229da625cd001297fd00822da60
            2b6a9b060dd402b070bd1969626f0191002a59d19a685606f7d5cde7a26f
            5a61d7e72046fff77bff236a256b002b63d000221021236862626261a261
            e261d9609a6a0a439a620026da6a204642f00c022661da62fff717ffe36f
            266313b12946a06a984720222368da6002b070bd2046fff755ff236a2bb1
            a06a216b98472046fff701ff01221021236862629a6a22f010029a62d960
            2a6a5107a2d5da6a204642f00402da62fff78efe04222368da6097e71a68
            a16f22f47f0222f47f4242f480721a60596199e7019890472368a1e75006
            3ff571af226be16a18699142019004d9a36a01999954226b236899680132
            49062263f0d55fe72368a4e7002320462361fff7c0fe236878e7684620f0
            07018d4601b50348fff73affbde801408546704748050020684620f00701
            8d4601b50348fff72cffbde8014085467047c4040020f0b5264cb2f5803f
            27684fea870404eb07054feac5164fea850506f1844605f1402e0ef5803e
            06f52016c6f8c431cef80400cef80810def80c604fea16464fea0646cef8
            0c601ed80021def80c0092b2134b0243cef80c20196101250020e3199a00
            02f1402202f58032d168db0103f1844303f5201341f4e001d160c3f8c051
            c3f8cc01f0bd064ba2f5803201f5803100f580301a61d9609860dee7a804
            0020ac040020684620f007018d4631b50124224d23492a6802eb82039b00
            02f5287003f1402341f8204003f58033d9682244042a21f4e001d96008bf
            0023194c18bf2a60226908bf2b607ab11749a0680b68042b0cbf00230133
            0b60237de168fff77fffbde83140854670472b6803eb83039b0003f14023
            03f58033db6813f4e003efd10120084962682b6020700b60002ae7d09047
            bde8314085467047a404002000002842ac040020a8040020684620f00701
            8d46264b31b51b6813f4706f1cd0244c21688b005a18d20102f1844202f5
            2012d2f808223ab102201f4a5568107015b1a84721688b000b44db0103f1
            844303f52013d3f80c320bbb154b1b6813f4704f05d00420144b5a681870
            02b19047bde831400123114a1149c2f8c8318546c2f8803ac2f84834c1f8
            803ac2f8c836c1f8843ac2f84839c1f8883a70470320054b5a681870002a
            d7d09047d5e700bf00400140a4040020ac040020000028420400284220b1
            072b02d8b2f5005f00d37047f0b50f4615461e46044683b0d1b207f10800
            fff71efb6a1102f4ff6242ea060107f10c00fff715fb276007f11000fff7
            12fb82070cd520680430fff70cfb23688df8070003f11000fff705fb8307
            f2d40023237103b0f0bd00bf98b191b18ab170b504460d468e1820681030
            fff7f3fac307f9d515f8011b2068fff7eafab542f2d170bd7047f8b508b1
            01b112b900252846f8bd04460068174610300e46fff7dafa2379820743ea
            00032371efd50025013e01e0af42ebd0206801350430fff7cafa06f8010f
            20681030fff7c4fa2379034323718307edd42846f8bd00bf28b100220379
            0271c3f382007047ff20704700bf38b5104b082905465c5c00680cd90c30
            fff7a8fa2b6844ea0001c9b203f10c00bde83840fff79cba0830fff79bfa
            2b6844ea0001c9b203f10800bde83840fff78fba00bf1445000038b5104b
            082905465c5c00680cd90c30fff784fa2b6820ea0401c9b203f10c00bde8
            3840fff778ba0830fff777fa2b6820ea0401c9b203f10800bde83840fff7
            6bba00bf1445000070b5044616461d46016001f108000021fff75efa2068
            00210c30fff759fa31462068fff725fa206829460430fff720fa20680021
            1030fff71bfa206800211830fff716fa206800212030fff711fa20680021
            2830fff70cfa206800213030fff707fa206800213830fff702fa20680021
            4030fff7fdf9206800214830fff7f8f9206800215030fff7f3f920680021
            5830fff7eef9206800216030fff7e9f9206800216830fff7e4f920680021
            7030fff7dff9206800217830fff7daf9206800218030fff7d5f920680021
            bde870408830fff7ceb970b54c1e0f2c1dd8c2b105460c4616460d4b0068
            53f8213000211844fff7bef90a4b286853f8243031461844fff7b6f92146
            2846bde87040fff730bfbde87040fff750bf70bd00bf6c45000028450000
            70b506460c46027101f180053160204600210434fff7caf9ac42f8d13379
            012b21d00ad3022b07d130684ff0ff31bde870408030fff78ab970bd3068
            ff218030fff7b4f93068ff218430fff7aff93068ff218830fff7aaf93068
            ff21bde870408c30fff7a3b930684ff6ff718030fff785f930684ff6ff71
            bde870408430fff77db900bf1f290b4600d970470068114600eb8300fff7
            5ab938b503790446012b0d4621d008d3022b05d1bde838400068a030fff7
            4bb938bd0068c9b2a030fff775f92068c5f30721a430fff76ff92068c5f3
            0741a830fff769f92068290eac30bde83840fff762b9006889b2a030fff7
            45f92068290ca430bde83840fff73eb9037970b5012b044624d009d3022b
            05d1bde8704000689030fff71ab9002070bd00689030fff744f905462068
            9430fff73ff9064620689830fff73af92368000440ea062403f19c00fff7
            32f92c4344ea006070bd00689030fff712f9054620689430fff70df945ea
            004070bd037970b5012b044624d009d3022b05d1bde870400068a030fff7
            e4b8002070bd0068a030fff7f6f805462068a430fff7f1f806462068a830
            fff7ecf82368000440ea062403f1ac00fff7e4f82c4344ea006070bd0068
            a030fff7dcf805462068a430fff7d7f845ea004070bd1f2900d9704710b5
            046804eb81042046fff7e2f840f00801c9b22046bde81040fff7d8b81f29
            00d9704710b5046804eb81042046fff7d0f820f008012046bde81040fff7
            c7b800bf38b5012403790546012b04fa01f420d009d3022b06d100682146
            bde838408030fff784b838bd006821468030fff7aef82868210a8430fff7
            a9f82868210c8830fff7a4f82868210e8c30bde83840fff79db800682146
            8030fff780f82868210c8430bde83840fff779b800bf4ff602020b4bd3f8
            4c1191420bd1d3f8982042f48072c3f89820d3f8982022f08062c3f89820
            044a536943f400735361fef7d2bf0080034000ed00e0f0b42e4a82b0d2f8
            983013f0806324d1d2f89810c9043ad50124032102208df806108df80710
            8df800308df802308df801408df803408df804008df80500d2f89c3002a9
            c3f382130b4413f8083ca34231d002d31a491b4b08e0d2f850111a4a11f0
            040f194b18bf134615490b60184f184e194d194c1a481a4a1b493b603360
            2b6023600360116002b0f0bc7047174b0b4a0f4913600b600e4f104e104d
            1148114c0d4a12493b6033602b600460116002b0f0bc70474ff40043d6e7
            008003400400002040420f0080f0fa0240787d0114000020180000200800
            00200c000020100000201c000020c00e1602003b5808801d2c0410b50d4c
            2046fff7d3fe02460b4b20461a601a6882f007021a601968fff75efe0222
            07490748fff7e7fc4ff0402301221a61bff34f8f10bdcc05002020000020
            24000020d405002000000000012910b50c460ad0022908d003292ed00429
            04d005293cd006291ad010bd02f027fa0022002302f0c5f821a3d3e90023
            02f072fa0022264b02f0bcf802f07efc02f050fe2146bde8104002462148
            fff7abbd02f00dfa0022002302f0abf816a3d3e9002302f058fa00221b4b
            e4e702f0fff90022194b02f09df80022002302f099f80fa3d3e9002302f0
            46fa0022144bd2e702f0edf90022002302f08bf80aa3d3e9002302f038fa
            00220e4bc4e700bf181818181818c83fd9d8d8d8d8d8c83f1b1b1b1b1b1b
            cb3f5a5a5a5a5a5aca3f00002840dc050020000026400080444000002040
            0000224010b50e4c142220460621fff759fd204624220421fff754fd2046
            17220521fff74ffd20461d220221fff74afd2046bde8104017220321fff7
            43bd00bfdc05002000b583b0a0b101281ed0022822d0032814d000230193
            019b114a934205dc019b01330193019b9342f9dd03b05df804fb22220621
            0b48fff723fdeae7202206210848fff71dfde4e7242206210548fff717fd
            dee7142206210248fff711fdd8e787f50400dc0500202de9f043012a83b0
            054689461e462bd090462abb0146484602f088fd00b341f664174c460a9b
            07fb03f70b992046fff71fffcdf80480019b9f4205dd019b01330193019b
            9f42f9dc3146204602f002fc81460146284602f05ffd08b14c46e4e72046
            03b0bde8f0830146484602f054fd0028f5d041f664174c464ff000080a9b
            07fb03f70b992046fff7f2fecdf80080009b9f4205dd009b01330093009b
            bb42f9db2146304602f0d7fb81460146284602f03cfd0028d3d04c46e3e7
            0522022310b58ab08de80c0054494ff07e5300225348fff795ff00230993
            099b514a934205dc099b01330993099b9342f9dd0220fff752ff0a220323
            4b498de80c004b484ff07e530122fff77bff00230893089b444a934205dc
            089b01330893089b9342f9dd00230793079b414a934205dc079b01330793
            079b9342f9dd0320fff72cff00230693069b3b4a934205dc069b01330693
            069b9342f9dd0a22032333498de80c0035484ff07e530022fff749ff0023
            0593059b2b4a934205dc059b01330593059b9342f9dd0a2203232b498de8
            0c0026484ff07e530122fff732ff00230493049b264a934205dc049b0133
            0493049b9342f9dd0220fff7effe00230393039b1e4a934205dc039b0133
            0393039b9342f9dd03230a24019300224ff07e53134900941148fff70cff
            02230122019300944ff07e530a490948fff702ff00230293029b0e4a9342
            05dc029b01330293029b9342f9ddfff7a0fe0ab010bd0000b8420000b642
            9f2e63000000f0410000a0423fd2df03ff741903000082424f9731000a22
            022300b589b08de80c0040494ff07e5301223f48fff7d3fe00230793079b
            3d4a934205dc079b01330793079b9342f9dd0a22032339498de80c003848
            4ff07e530122fff7bcfe00230693069b324a934205dc069b01330693069b
            9342f9dd0a2204232f498de80c002f484ff07e530022fff7a5fe00230593
            059b264a934205dc059b01330593059b9342f9dd0320fff762fe00230493
            049b244a934205dc049b01330493049b9342f9dd0a2204231d498de80c00
            1e484ff07e530022fff77ffe00230393039b1a4a934205dc039b01330393
            039b9342f9dd0a22032310498de80c0014484ff07e530022fff768fe0023
            0293029b084a934205dc029b01330293029b9342f9dd09b05df804fb00bf
            0000b8420000e0424f9731000000f0410000c842000002430000c4426f6d
            45000000c0422fc11d00000070420522022300b587b08de80c002d494ff0
            7c5300222c48fff735fe00230593059b2a4a934205dc059b01330593059b
            9342f9dd0122052326498de80c0022484ff07e530022fff71efe00230493
            049b214a934205dc049b01330493049b9342f9dd0a2204231c498de80c00
            1c484ff07e530022fff707fe00230393039b184a934205dc039b01330393
            039b9342f9dd0a22032314498de80c0013484ff07e530122fff7f0fd0023
            0293029b084a934205dc029b01330293029b9342f9dd07b05df804fb00bf
            0000e042000082424f97310000008c421fd613000000c0420000a0422fc1
            1d00000070420000a8420a22032300b587b08de80c0027494ff07e530122
            2648fff7bffd00230593059b244a934205dc059b01330593059b9342f9dd
            0522022320498de80c001f484ff07c530122fff7a8fd0a22032318498de8
            0c001b484ff07e530022fff79dfd00230493049b134a934205dc049b0133
            0493049b9342f9dd05220a2312490192009300224ff07e530846fff786fd
            00230393039b084a934205dc039b01330393039b9342f9dd07b05df804fb
            00bf0000a8420000b4424f97310000008242000084420000484200007042
            10b506230a241b4984b0019308464ff07e5301220094fff75bfd04230122
            019315494ff07e5300941448fff751fd02230122019312494ff07e530094
            1148fff747fd03230022019300944ff07e530e490e48fff73dfd00230393
            039b0c4a934205dc039b01330393039b9342f9dd04b010bd00bf0000dc42
            0000a04200000243000082420000b842000048420000f0414f9731000a22
            022310b588b08de80c0044494ff07e5300224348fff711fd00230793079b
            414a934205dc079b01330793079b9342f9dd0a2203233d498de80c003c48
            4ff07e530122fff7fafc00230693069b364a934205dc069b01330693069b
            9342f9dd0a22042333498de80c0033484ff07e530022fff7e3fc00230593
            059b2a4a934205dc059b01330593059b9342f9dd0a22032327498de80c00
            28484ff07e530122fff7ccfc00230493049b254a934205dc049b01330493
            049b9342f9dd0320fff789fc00230393039b1d4a934205dc039b01330393
            039b9342f9dd04230a24019300224ff07e53144900940d48fff7a6fc0323
            0022019300944ff07e530f491148fff79cfc00230293029b074a934205dc
            029b01330293029b9342f9dd08b010bd0000b842000082429f2e63000000
            f0410000aa42000002430000c0420000c8426f6d450000008c42002300b5
            89b00793079b394a934205dc079b01330793079b9342f9dd052202233449
            8de80c0034484ff07e530122fff761fc00230693069b2d4a934205dc069b
            01330693069b9342f9dd0a2205232b498de80c002a484ff07e530022fff7
            4afc00230593059b274a934205dc059b01330593059b9342f9dd0a220423
            22498de80c0022484ff07e530022fff733fc00230493049b164a934205dc
            049b01330493049b9342f9dd0a22032314498de80c0017484ff07e530122
            fff71cfc00230393039b0b4a934205dc039b01330393039b9342f9dd0a22
            052309498de80c0007484ff07e530122fff705fc09b05df804fb9f2e6300
            000082420000e04200008c42000078424f9731000000f4420000a0420000
            9e420a22032300b585b08de80c001b494ff07e5301221a48fff7e3fb0522
            022319498de80c0018484ff07e530022fff7d8fb00230393039b154a9342
            05dc039b01330393039b9342f9dd0a2203230c498de80c000f484ff07e53
            0022fff7c1fb00230293029b0b4a934205dc029b01330293029b9342f9dd
            05b05df804fb00009c420000b4420000e0420000da421fd6130000004842
            4f97310010b506230a24204984b0019308464ff07e5301220094fff797fb
            0423012201931a494ff07e5300941948fff78dfb05230122019317494ff0
            7e5300941648fff783fb02230122019314494ff07e5300941348fff779fb
            03230022019300944ff07e5310491048fff76ffb00230393039b0e4a9342
            05dc039b01330393039b9342f9dd04b010bd00bf0000dc420000a0420000
            02430000784200008c420000de420000b842000048420000f0414f973100
            0a22022300b589b08de80c0045494ff07c5300224448fff73ffb00230793
            079b424a934205dc079b01330793079b9342f9dd0a2203233e498de80c00
            3d484ff07e530122fff728fb00230693069b3a4a934205dc069b01330693
            069b9342f9dd0a22042335498de80c0032484ff07e530022fff711fb0023
            0593059b304a934205dc059b01330593059b9342f9dd0320fff7cefa0023
            0493049b2a4a934205dc049b01330493049b9342f9dd0f22032320498de8
            0c0024484ff07e530022fff7ebfa0a2204231b498de80c001f484ff07e53
            0022fff7e0fa00230393039b134a934205dc039b01330393039b9342f9dd
            0f22032314498de80c0015484ff07e530022fff7c9fa00230293029b074a
            934205dc029b01330293029b9342f9dd09b05df804fb0000b8420000ac42
            4f9731000000f0410000c8425f823b00000002431fd613006f6d45000000
            a0420000c64200008c420a22022300b587b08de80c0021494ff07e530022
            2048fff795fa00230593059b1e4a934205dc059b01330593059b9342f9dd
            0a2204231a498de80c0019484ff07e530022fff77efa00230493049b164a
            934205dc049b01330493049b9342f9dd0f22032311498de80c0011484ff0
            7e530122fff767fa00230393039b0d4a934205dc039b01330393039b9342
            f9dd07b05df804fb0000ac42000040425f823b000000c64200009e424f97
            310000008c420000a4427f584f000a22032310b586b08de80c0030494ff0
            7e5301222f48fff739fa00230593059b2d4a934205dc059b01330593059b
            9342f9dd0a22022329498de80c0028484ff07e530122fff722fa00230493
            049b224a934205dc049b01330493049b9342f9dd0a240323002201931a49
            4ff07e5300941c48fff70bfa0423012201931a494ff07e5300941948fff7
            01fa05231849019308464ff07e5301220094fff7f7f90223012201930094
            4ff07e5312491248fff7edf900230393039b104a934205dc039b01330393
            039b9342f9dd06b010bd00bf0000a4420000b4421fd61300000040420000
            48420000f04100009e420000024300008c42000038420000b8424f973100
            0a22022300b589b08de80c0040494ff07e5300223f48fff7b9f900230793
            079b3d4a934205dc079b01330793079b9342f9dd0a22042339498de80c00
            38484ff07e530022fff7a2f900230693069b354a934205dc069b01330693
            069b9342f9dd0a22032330498de80c0030484ff07e530122fff78bf90023
            0593059b2c4a934205dc059b01330593059b9342f9dd0320fff748f90023
            0493049b264a934205dc049b01330493049b9342f9dd0a2204231b498de8
            0c0020484ff07e530022fff765f900230393039b134a934205dc039b0133
            0393039b9342f9dd0a22032313498de80c0015484ff07e530022fff74ef9
            00230293029b084a934205dc029b01330293029b9342f9dd09b05df804fb
            00bf0000b842000050424f973100000002430000a4420feb09000000f041
            0000b0425f823b006f6d45000000a042000082420a22022300b587b08de8
            0c0027494ff07e5301222648fff719f900230593059b244a934205dc059b
            01330593059b9342f9dd0a22042320498de80c001f484ff07e530022fff7
            02f900230493049b1c4a934205dc049b01330493049b9342f9dd00230393
            039b174a934205dc039b01330393039b9342f9dd0a22032312498de80c00
            12484ff07e530122fff7dff800230293029b074a934205dc029b01330293
            029b9342f9dd07b05df804fb000050420000be424f9731000000a0420000
            8e426f6d45001fd613000000824200009c420a22032300b585b08de80c00
            16494ff07e5301221548fff7b1f800230393039b134a934205dc039b0133
            0393039b9342f9dd052202230f498de80c000e484ff07c530122fff79af8
            00230293029b0b4a934205dc029b01330293029b9342f9dd05b05df804fb
            00bf00009c420000ae424f9731000000be420000b6421fd6130010b50523
            0a2486b0019300224ff07e53254900942548fff771f80423012201930094
            4ff07e5322492248fff767f800230593059b204a934205dc059b01330593
            059b9342f9dd0a2203231c498de80c001b484ff07e530022fff750f80023
            0493049b154a934205dc049b01330493049b9342f9dd0a22022312498de8
            0c0012484ff07e530122fff739f800230393039b094a934205dc039b0133
            0393039b9342f9dd06b010bd00bf000082420000404200008e4200000243
            4f9731000000ae420000f0410000b6420000b8420a22042300b587b08de8
            0c0030494ff07e5301222f48fff70bf805224ff07e53019200922c490122
            2c48fff701f800230593059b2a4a934205dc059b01330593059b9342f9dd
            05224ff07e5301920092224900222348fef7ebff00230493049b214a9342
            05dc049b01330493049b9342f9dd05224ff07e5301920092194901221648
            fef7d5ff00230393039b164a934205dc039b01330393039b9342f9dd0522
            4ff07e53019200920c4900220a48fef7bfff00230293029b094a934205dc
            029b01330293029b9342f9dd07b05df804fb0000c8420000024300007042
            000034435f823b000000a0404f9731000a22052330b589b08de80c004949
            4ff07e5301224848fef795ff00230793079b464a934205dc079b01330793
            079b9342f9dd0a22042342498de80c0041484ff07e530022fef77eff0023
            0693069b3b4a934205dc069b01330693069b9342f9dd0a22032333498de8
            0c0036484ff07e530122fef767ff00230593059b324a934205dc059b0133
            0593059b9342f9dd0220fef724ff00230493049b284a934205dc049b0133
            0493049b9342f9dd0a2403254ff07e53012223498de830002348fef741ff
            0523012201931b494ff07e5300941f48fef737ff4ff07e5300228de83000
            1a491c48fef72eff00230393039b134a934205dc039b01330393039b9342
            f9dd04220a230f490192009301224ff07e530846fef717ff00230293029b
            074a934205dc029b01330293029b9342f9dd09b030bd00bf000070420000
            8c424f973100000002430000a642efc594000000b4420000904200004842
            0a22042300b58bb08de80c005c494ff07e5301225b48fef7e9fe05224ff0
            7e5301920092584901225848fef7dffe00230993099b564a934205dc099b
            01330993099b9342f9dd05224ff07e53019200924e4900224c48fef7c9fe
            00230893089b4c4a934205dc089b01330893089b9342f9dd05224ff07e53
            01920092424901224548fef7b3fe00230793079b414a934205dc079b0133
            0793079b9342f9dd05224ff07e53019200923b4900223648fef79dfe0023
            0693069b354a934205dc069b01330693069b9342f9dd05224ff07e530192
            00922c4901222c48fef787fe00230593059b2a4a934205dc059b01330593
            059b9342f9dd05224ff07e5301920092224900222048fef771fe00230493
            049b204a934205dc049b01330493049b9342f9dd05224ff07e5301920092
            164901221948fef75bfe00230393039b154a934205dc039b01330393039b
            9342f9dd05224ff07e53019200920f4900220a48fef745fe00230293029b
            094a934205dc029b01330293029b9342f9dd0bb05df804fb0000c6420000
            f04200008c4200002a435f823b004f973100000020420a22042300b589b0
            8de80c003f494ff07e5300223e48fef71bfe00230793079b3c4a934205dc
            079b01330793079b9342f9dd05224ff07e5301920092364900223648fef7
            05fe00230693069b314a934205dc069b01330693069b9342f9dd0f220323
            2f498de80c002e484ff07e530122fef7eefd00230593059b264a934205dc
            059b01330593059b9342f9dd0220fef7abfd00230493049b1e4a934205dc
            049b01330493049b9342f9dd052202231d498de80c001c484ff07c530122
            fef7c8fd00230393039b134a934205dc039b01330393039b9342f9dd0a22
            032311498de80c0012484ff07e530122fef7b1fd00230293029b0e4a9342
            05dc029b01330293029b9342f9dd09b05df804fb0000f0420000a8424f97
            310000008c4200008842000096420000aa420000ac420000b0421fd61300
            10b504230a2484b0019301224ff07e53134900941348fef781fd05230122
            019311494ff07e5300941048fef777fd03230022019300944ff07e530d49
            0d48fef76dfd00230393039b0b4a934205dc039b01330393039b9342f9dd
            04b010bd00bf0000a84200000c430000884200008c420000b0420000f041
            4f97310030b520228db006219448fef755fa052404230022019392494ff0
            7e5300949148fef73efd02250a2301228de828008e494ff07e538d48fef7
            33fd4ff07e5301228b49019400948b48fef72afd2846fef7f3fc00230b93
            0b9b874a934205dc0b9b01330b930b9b9342f9dd0a2202237f498de80c00
            7a484ff07e530122fef710fd082203237d498de80c007d484ff07e530122
            fef705fd0522042372498de80c0078484ff07e530122fef7fafc00230a93
            0a9b714a934205dc0a9b01330a930a9b9342f9dd0320fef7b7fc05224ff0
            7e5301920092674901220020fef7e1fc00230993099b644a934205dc099b
            01330993099b9342f9dd05224ff07e5301920092002100225b48fef7cbfc
            00230893089b594a934205dc089b01330893089b9342f9dd082203235649
            8de80c0053484ff07e530022fef7b4fc0522042351498de80c004c484ff0
            7e530022fef7a9fc0220fef772fc00230793079b474a934205dc079b0133
            0793079b9342f9dd0a22022345498de80c0000204ff07e530022fef78ffc
            00230693069b3b4a934205dc069b01330693069b9342f9dd0320fef74cfc
            05224ff07e5301920092002101223748fef776fc00230593059b2f4a9342
            05dc059b01330593059b9342f9dd05224ff07e53019200922d4900220020
            fef760fc00230493049b244a934205dc049b01330493049b9342f9dd0220
            fef71dfc052404230122019322494ff07e5300941448fef746fc4ff07e53
            00220021019400941348fef73dfc0a22022300218de80c000d484ff07e53
            0122fef732fcfef7dcfb00230393039b134a934205dc039b01330393039b
            9342f9dd0db030bddc05002000000c43000048420000b8420000c8420000
            8c42000016431fd613000000f0410000a0420000f0420000204300003443
            000002434f97310070b5002182b02f48fef730fa01212d48fef72cfa2b48
            fef7abf9044604212948fef772f9012c17d0022c3ad000212548fef72efa
            01212348fef72afa0822224b0021c3f884211f48fef7fef901211d48fef7
            faf902b070bd00211a48fef718fa21461848fef714fa00211648fef7ecf9
            21461448fef7e8f90026144c114dfff773fe0196019ba34205dc019b0133
            0193019ba342f9dd2846fef76af90128eed0c4e700210748fef7f3f90121
            0548fef7eff900210348fef7d9f901210148fef7d5f9fee7cc05002000e1
            00e0a7cb180000b589b0fef744fb0220fef761fb00230793079b314a9342
            05dc079b01330793079b9342f9ddfef7a7fc00230693069b2a4a934205dc
            069b01330693069b9342f9ddfef737fd00230593059b234a934205dc059b
            01330593059b9342f9dd0220fef736fb00230493049b1c4a934205dc049b
            01330493049b9342f9ddfef790fdfef7f2fd00230393039b154a934205dc
            039b01330393039b9342f9ddfef7f8fa00230293029b0d4a934205dc029b
            01330293029b9342f9ddfef7eafa00230193019b064a934205dc019b0133
            0193019b9342f9dd09b05df804fb00bf4f9731001fd6130000b587b0fef7
            d2fa0220fef7effa00230593059b2b4a934205dc059b01330593059b9342
            f9ddfef7f7fd00230493049b244a934205dc049b01330493049b9342f9dd
            fef78dfe00230393039b1d4a934205dc039b01330393039b9342f9dd0220
            fef7c4fafef706fffef750ff00230293029b154a934205dc029b01330293
            029b9342f9ddfef792fa00230193019b0d4a934205dc019b01330193019b
            9342f9ddfef784fa00230093009b064a934205dc009b01330093009b9342
            f9dd07b05df804fb00bf4f9731001fd6130000b5022087b0fef78bfafef7
            71ff00230593059b224a934205dc059b01330593059b9342f9ddfff70df8
            00230493049b1c4a934205dc049b01330493049b9342f9dd0220fef76cfa
            00230393039b144a934205dc039b01330393039b9342f9ddfff74cf80023
            0293029b0e4a934205dc029b01330293029b9342f9ddfef730fa00230193
            019b074a934205dc019b01330193019b9342f9dd07b05df804fb00bf9f2e
            63004f97310000b5022087b0fef737fafff7a3f800230593059b294a9342
            05dc059b01330593059b9342f9ddfff735f900230493049b224a934205dc
            049b01330493049b9342f9dd0220fef718fa00230393039b1b4a934205dc
            039b01330393039b9342f9ddfff780f900230293029b144a934205dc029b
            01330293029b9342f9ddfff7b2f900230193019b0d4a934205dc019b0133
            0193019b9342f9ddfef7cef900230093009b064a934205dc009b01330093
            009b9342f9dd07b05df804fb00bf4f97310000b5022087b0fef7d7f9fef7
            29fb00230593059b214a934205dc059b01330593059b9342f9ddfff7e3f9
            00230493049b1a4a934205dc049b01330493049b9342f9ddfff74bfa0023
            0393039b134a934205dc039b01330393039b9342f9ddfef73bfe00230293
            029b0c4a934205dc029b01330293029b9342f9ddfef77df900230193019b
            054a934205dc019b01330193019b9342f9dd07b05df804fb4f97310000b5
            022085b0fef787f9fef76dfe00230393039b1b4a934205dc039b01330393
            039b9342f9ddfff7b5fa00230293029b144a934205dc029b01330293029b
            9342f9ddfff775fb00230193019b0d4a934205dc019b01330193019b9342
            f9ddfff701fcfef739f900230093009b054a934205dc009b01330093009b
            9342f9dd05b05df804fb4f9731002de9f04140f28f138eb031224ff0a041
            b248fdf713fe00230493049ab04b9a4205dc049a01320492049a9a42f9dd
            12220621aa48fdf76cfe22220421a748fdf767fe15220521a548fdf762fe
            1c220221a248fdf75dfe18220321a048fdf758fe00230393039a9f4b9a42
            05dc039a01320392039a9a42f9dd142206219748fdf747fe242204219548
            fdf742fe172205219248fdf73dfe1d2202219048fdf738fe172203218d48
            fdf733fe00230293029a8c4b9a4205dc029a01320292029a9a42f9dd1422
            06218548fdf722fe242204218248fdf71dfe172205218048fdf718fe1d22
            02217d48fdf713fe172203217b48fdf70efe00230193019a7a4b9a4205dc
            019a01320192019a9a42f9dd2022002106a800f0e9fe0123252273497348
            fdf7c5fc022272497148fdf7f4fcfdf77cff022270497048fdf713fe0522
            00216e48fdf750fedff8c481052201216a48fdf749fe052202216848fdf7
            44fed8f800106548fdf749fe432200216348fdf73afe432201216048fdf7
            35fe052202215e48fdf730fe00215c48fdf7d6fe01215a48fdf7d2fe0822
            4ff480404ff0010e4ff0402500245549564b4a60564e1b68c1f88000b26c
            03eb830322f04002b264524a03fa0ef36c65494ec2f88041c2f88841c2f8
            8441c5f810e0c1f880016b60464dc2f880e1c2f888e108602846d8f80010
            fdf702fe3046fdf7cffcf8b18fb19df81830412b21d0422b28d0432b2fd0
            442b36d0452b3dd0472b44d0492b4bd04a2b52d04ff6e7520594059b9342
            dddc059b01330593059b9342f9ddd6e7202206a93046fdf77dfc0746d8e7
            032128468df81840fdf7d1fdfff7b3fce2e7032128468df81840fdf7c8fd
            fff71cfdd9e7032128468df81840fdf7bffdfff779fdd0e7032128468df8
            1840fdf7b6fdfff7c4fdc7e701212846fdf7affd8df81840fff71bfebee7
            012128468df81840fdf7a4fdfff762feb5e706212846fdf79dfd8df81840
            fff7c9faace7052128468df81840fdf792fdfef76ef8a3e700bfdc050020
            1fd613004f97310000200050d40500202400002000100030cc05002000e1
            00e01400002000800340000008422000002081f0004102e000bf83f00043
            30b54fea41044fea430594ea050f08bf90ea020f1fbf54ea000c55ea020c
            7fea645c7fea655c00f0e2804fea5454d4eb5555b8bf6d420cdd2c4480ea
            020281ea030382ea000083ea010180ea020281ea0303362d88bf30bd11f0
            004f4fea01314ff4801c4cea113102d0404261eb410113f0004f4fea0333
            4cea133302d0524263eb430394ea050f00f0a780a4f10104d5f1200e0ddb
            02fa0efc22fa05f2801841f1000103fa0ef2801843fa05f359410ee0a5f1
            20050ef1200e012a03fa0efc28bf4cf0020c43fa05f3c01851ebe37101f0
            004507d54ff0000edcf1000c7eeb00006eeb0101b1f5801f1bd3b1f5001f
            0cd349085fea30004fea3c0c04f101044fea445212f5800f80f09a80bcf1
            004f08bf5fea500c50f1000041eb045141ea050130bd5fea4c0c404141eb
            010111f4801fa4f10104e9d191f0000f04bf01460020b1fa81f308bf2033
            a3f10b03b3f120020cda0c3208dd02f1140cc2f10c0201fa0cf021fa02f1
            0ce002f11402d8bfc2f1200c01fa02f120fa0cfcdcbf41ea0c019040e41a
            a2bf01eb0451294330bd6fea04041f3c1cda0c340edc04f11404c4f12002
            20fa04f001fa02f340ea030021fa04f345ea030130bdc4f10c04c4f12002
            20fa02f001fa04f340ea0300294630bd21fa04f0294630bd94f0000f83f4
            801306bf81f480110134013d4ee77fea645c18bf7fea655c29d094ea050f
            08bf90ea020f05d054ea000c04bf1946104630bd91ea030f1ebf00210020
            30bd5fea545c05d14000494128bf41f0004130bd14f580043cbf01f58011
            30bd01f0004545f0fe4141f470014ff0000030bd7fea645c1abf19461046
            7fea655c1cbf0b46024650ea013406bf52ea033591ea030f41f4002130bd
            00bf90f0000f04bf0021704730b54ff4806404f132044ff000054ff00001
            50e700bf90f0000f04bf0021704730b54ff4806404f1320410f0004548bf
            40424ff000013ee700bf42004feae2014fea31014fea02701fbf12f07f43
            93f07f4f81f06051704792f0000f14bf93f07f4f704730b54ff4607401f0
            004521f0004120e700bf50ea010208bf704730b54ff000050ae050ea0102
            08bf704730b511f0004502d5404261eb41014ff4806404f132045fea915c
            3ff4dcae4ff003025feadc0c18bf03325feadc0c18bf033202ebdc02c2f1
            200300fa03fc20fa02f001fa03fe40ea0e0021fa02f11444c1e600bf70b5
            4ff0ff0c4cf4e06c1cea11541dbf1cea135594ea0c0f95ea0c0f00f0def8
            2c4481ea030621ea4c5123ea4c5350ea013518bf52ea033541f4801143f4
            801338d0a0fb02ce4ff00005e1fb02e506f00042e0fb03e54ff00006e1fb
            03569cf0000f18bf4ef0010ea4f1ff04b6f5007f64f5407404d25fea4e0e
            6d4146eb060642eac62141ea55514feac52040ea5e504feace2eb4f1fd0c
            88bfbcf5e06f1ed8bef1004f08bf5fea500e50f1000041eb045170bd06f0
            004646ea010140ea020081ea0301b4eb5c04c2bfd4eb0c0541ea045170bd
            41f480114ff0000e013c00f3ab8014f1360fdebf002001f0004170bdc4f1
            0004203c35da0c341bdc04f11404c4f1200500fa05f320fa04f001fa05f2
            40ea020001f0004221f0004110ebd37021fa04f642eb06015eea430e08bf
            20ead37070bdc4f10c04c4f1200500fa04f320fa05f001fa04f240ea0200
            01f0004110ebd37041f100015eea430e08bf20ead37070bdc4f1200500fa
            05f24eea020e20fa04f301fa05f243ea020321fa04f001f0004121fa04f2
            20ea020000ebd3705eea430e08bf20ead37070bd94f0000f0fd101f00046
            400041eb010111f4801f08bf013cf7d041ea060195f0000f18bf704703f0
            0046520043eb030313f4801f08bf013df7d043ea0603704794ea0c0f0cea
            135518bf95ea0c0f0cd050ea410618bf52ea4306d1d181ea030101f00041
            4ff0000070bd50ea410606bf1046194652ea430619d094ea0c0f02d150ea
            013613d195ea0c0f05d152ea03361cbf104619460ad181ea030101f00041
            41f0fe4141f470014ff0000070bd41f0fe4141f4780170bd70b54ff0ff0c
            4cf4e06c1cea11541dbf1cea135594ea0c0f95ea0c0f00f0a7f8a4eb0504
            81ea030e52ea03354fea013100f088804fea03334ff0805545ea131343ea
            12634fea022245ea111545ea10654fea00260ef000419d4208bf964244f1
            fd0404f5407402d25b084fea3202b61a65eb03055b084fea32024ff48010
            4ff4002cb6eb020e75eb030e22bfb61a754640ea0c005b084fea3202b6eb
            020e75eb030e22bfb61a754640ea5c005b084fea3202b6eb020e75eb030e
            22bfb61a754640ea9c005b084fea3202b6eb020e75eb030e22bfb61a7546
            40eadc0055ea060e18d04fea051545ea16754fea06164feac30343ea5273
            4feac2025fea1c1cc0d111f4801f0bd141ea00014ff000004ff0004cb6e7
            11f4801f04bf01430020b4f1fd0c88bfbcf5e06f3ff6afaeb5eb030c04bf
            b6eb020c5fea500c50f1000041eb045170bd0ef0004e4eea113114eb5c04
            c2bfd4eb0c0541ea045170bd41f480114ff0000e013c90e645ea060e8de6
            0cea135594ea0c0f08bf95ea0c0f3ff43baf94ea0c0f0ad150ea01347ff4
            34af95ea0c0f7ff425af104619462ce795ea0c0f06d152ea03353ff4fdae
            1046194622e750ea410618bf52ea43067ff4c5ae50ea41047ff40daf52ea
            43057ff4ebae12e74fea4102b2f1e04324bfb3f5001cdcf1fe5c0dd901f0
            004c4feac0024cea5070b2f1004f40eb830008bf20f00100704711f0804f
            21d113f13872bcbf01f00040704741f480114fea5252c2f11802c2f1200c
            10fa0cf320fa02f018bf40f001004feac1234fead32303fa0cfc40ea0c00
            23fa02f34fea4303cce77fea625307d150ea01331ebf4ff0fe4040f44000
            704701f0004040f0fe4040f40000704700bf80f0004002e000bf81f00041
            42001fbf5fea410392ea030f7fea226c7fea236c6ad04fea1262d2eb1363
            c1bfd218414048404140b8bf5b42192b88bf704710f0004f40f4000020f0
            7f4018bf404211f0004f41f4000121f07f4118bf494292ea030f3fd0a2f1
            010241fa03fc10eb0c00c3f1200301fa03f100f0004302d5494260eb4000
            b0f5000f13d3b0f1807f06d340084fea310102f10102fe2a51d2b1f1004f
            40ebc25008bf20f0010040ea03007047490040eb000010f4000fa2f10102
            edd1b0fa80fcacf1080cb2eb0c0200fa0cf0aabf00ebc25052421843bcbf
            d0401843704792f0000f81f4000106bf80f400000132013bb5e74fea4103
            7fea226c18bf7fea236c21d092ea030f04d092f0000f08bf0846704790ea
            010f1cbf0020704712f07f4f04d1400028bf40f00040704712f100723cbf
            00f50000704700f0004343f0fe4040f4000070477fea226216bf08467fea
            23630146420206bf5fea412390ea010f40f4800070474ff0000304e000bf
            10f0004348bf40425fea000c08bf704743f0964301464ff000001ce050ea
            010208bf70474ff000030ae000bf50ea010208bf704711f0004302d54042
            61eb41015fea010c02bf84460146002043f0b64308bfa3f18053a3f50003
            bcfa8cf2083aa3ebc25310db01fa02fc634400fa02fcc2f12002bcf1004f
            20fa02f243eb020008bf20f00100704702f1200201fa02fcc2f1200250ea
            4c0021fa02f243eb020008bf20eadc7070474ff0ff3c06e000bf4ff0010c
            02e000bf4ff0010c4df804cd4fea40024fea41037fea226c18bf7fea236c
            11d001b052ea530c18bf90ea010f58bfb2eb030088bfc81738bf6feae170
            18bf40f0010070477fea226c02d15fea402c05d17fea236ce4d15fea412c
            e1d05df8040b704700bf844608466146ffe70fb5fff7c9ff002848bf10f1
            000f0fbd4df808edfff7f4ff0cbf012000205df808fb00bf4df808edfff7
            eaff34bf012000205df808fb00bf4df808edfff7e0ff94bf012000205df8
            08fb00bf4df808edfff7d2ff94bf012000205df808fb00bf4df808edfff7
            c8ff34bf012000205df808fb00bf4fea4002b2f1fe4f0fd34ff09e03b3eb
            12620dd94fea002343f0004310f0004f23fa02f018bf404270474ff00000
            704712f1610f01d1420205d110f0004008bf6ff0004070474ff000007047
            70b50f4e0f4d761bb61018bf002405d0013455f8043b9847a642f9d10a4e
            0b4d00f044f9761bb61018bf002406d0013455f8043b9847a642f9d170bd
            70bd00bfcc450000cc450000d4450000cc45000070b4860746d0541e002a
            41d0cab2034602e014f1ff343bd303f8012b9d07f8d1032c2ed9cdb245ea
            05250f2c45ea054519d9264603f11002103e0f2e42f8105c42f80c5c42f8
            085c42f8045c02f11002f2d8a4f1100222f00f0204f00f041032032c1344
            0dd91e462246043a032a46f8045bfad8221f22f003020432134404f00304
            2cb1c9b21c4403f8011b9c42fbd170bc704714460346c2e700bf024b13b1
            024800f005b870470000000015440000002301461a46184600f01eb838b5
            0a4c0a4d641ba4100ad004f18043013b05eb8305013c55f804399847002c
            f9d1bde8384000f0c1b800bfd8450000d4450000704700bf704700bf2de9
            f8432c4d0646286898460f469146fff7f2ff294b1c68d4f84831002b3ed0
            5a681f2a1cdc02f1010e76b1012103eb8204c4f88890d3f8880191400843
            022ec3f88801c4f8088123d00232c3f804e0286843f82270fff7d1ff0020
            bde8f883174b0bb34ff4c870aff300800346d8b10020d4f848114ff0010e
            586019600246c4f84831c3f88801c3f88c01002edcd0cce7d3f88c010143
            c3f88c11d5e704f5a673c4f84831bbe72868fff7a7ff4ff0ff30bde8f883
            00bf50040020b04500000000000000010204081020408001020408102040
            8000000000000000140000001c000000240000002c000000340000003c00
            0000440000004c000000540000005c000000640000006c00000074000000
            7c000000840000008c000000000000001000000018000000200000002800
            000030000000380000004000000048000000500000005800000060000000
            680000007000000078000000800000008800000028000020f8b500bff8bc
            08bc9e467047f8b500bff8bc08bc9e467047f5430000d5040000b1040000
            000000000000000000000000003b5808801d2c04003b5808003b5808003b
            5808003b5808c00e1602020000004b00000000000000140300207c030020
            e40300200000000000000000000000000000000000000000000000000000
            000000000000000000000000000000000000000000000000000000000000
            000000000000000000000000000000000000000000000000000000000000
            000000000000000000000000000000000000000000000000000000000000
            000000000000000000000000000000000000000000000000000000000000
            00000000000001000000000000000e33cdab34126de6ecde05000b000000
            000000000000000000000000000000000000000000000000000000000000
            000000000000000000000000000000000000000000000000000000000000
            000000000000000000000000000000000000000000000000000000000000
            000000000000000000000000000000000000000000000000000000000000
            000000000000000000000000000000000000000000000000000000000000
            000000000000000000000000000000000000000000000000000000000000
            000000000000000000000000000000000000000000000000000000000000
            000000000000000000000000000000000000000000000000000000000000
            000000000000000000000000000000000000000000000000000000000000
            000000000000000000000000000000000000000000000000000000000000
            000000000000000000000000000000000000000000000000000000000000
            000000000000000000000000000000000000000000000000000000000000
            000000000000000000000000000000000000000000000000000000000000
            000000000000000000000000000000000000000000000000000000000000
            000000000000000000000000000000000000000000000000000000000000
            000000000000000000000000000000000000000000000000000000000000
            000000000000000000000000000000000000000000000000000000000000
            000000000000000000000000000000000000000000000000000000000000
            000000000000000000000000000000000000000000000000000000000000
            000000000000000000000000000000000000000000000000000000000000
            000000000000000000000000000000000000000000000000000000000000
            000000000000000000000000000000000000000000000000000000000000
            000000000000000000000000000000000000000000000000000000000000
            000000000000000000000000000000000000000000000000000000000000
            000000000000000000000000000000000000000000000000000000000000
            000000000000000000000000000000000000000000000000000000000000
            000000000000000000000000000000000000000000000000000000000000
            000000000000000000000000000000000000000000000000000000000000
            000000000000000000000000000000000000000000000000000000000000
            0000e0050020000000000000000000000000
            <crc>
                2f69
            </crc>
        </region>
    </nvm>
</Actel_Data_File>
